0,1,2,3,4,5,6,7,8,9,10,11,12,13,14,15,16
-8.0,-10.0,-10.0,-6.0,-6.0,-8.0,9.0,2.0,-141.0,-27.0,-10.0,-14.0,25.0,31.0,94.0,196.0,1
-6.0,-7.0,-10.0,-13.0,-10.0,-11.0,-2.0,1.0,-6.0,-12.0,-25.0,2.0,-5.0,-7.0,-16.0,23.0,1
10.0,9.0,9.0,13.0,14.0,13.0,13.0,16.0,62.0,90.0,120.0,63.0,73.0,77.0,55.0,-63.0,1
-10.0,-11.0,-8.0,-6.0,-5.0,0.0,0.0,-6.0,3.0,-5.0,0.0,0.0,0.0,-2.0,5.0,0.0,1
3.0,3.0,6.0,7.0,-1.0,-4.0,-11.0,-16.0,7.0,6.0,13.0,17.0,19.0,28.0,22.0,4.0,1
12.0,13.0,15.0,13.0,10.0,10.0,8.0,8.0,68.0,51.0,50.0,21.0,25.0,31.0,22.0,-55.0,1
-14.0,-12.0,-11.0,-12.0,-12.0,-16.0,-10.0,-12.0,-127.0,-81.0,-85.0,-44.0,-30.0,-34.0,-26.0,32.0,1
24.0,25.0,25.0,28.0,30.0,31.0,27.0,26.0,14.0,20.0,25.0,35.0,30.0,33.0,27.0,-10.0,1
-7.0,-9.0,-12.0,-10.0,-1.0,1.0,-3.0,-4.0,6.0,12.0,28.0,-21.0,-6.0,0.0,1.0,-5.0,1
28.0,24.0,23.0,21.0,21.0,31.0,40.0,18.0,55.0,28.0,78.0,23.0,25.0,14.0,23.0,18.0,1
12.0,10.0,9.0,10.0,12.0,14.0,17.0,18.0,25.0,58.0,80.0,44.0,48.0,63.0,46.0,-27.0,1
-28.0,-19.0,-12.0,-6.0,-10.0,-7.0,-7.0,-10.0,-378.0,-310.0,-248.0,-174.0,-96.0,-111.0,-151.0,-97.0,1
-21.0,-25.0,-23.0,-22.0,-18.0,-16.0,-11.0,-10.0,-15.0,13.0,19.0,13.0,8.0,1.0,4.0,10.0,1
3.0,2.0,-1.0,-1.0,-1.0,-6.0,-23.0,-6.0,209.0,128.0,113.0,74.0,65.0,82.0,27.0,-45.0,1
0.0,2.0,4.0,2.0,2.0,-4.0,0.0,0.0,-11.0,-16.0,-37.0,-8.0,-32.0,-39.0,-34.0,24.0,1
-15.0,-16.0,-19.0,-20.0,-16.0,-14.0,-10.0,-11.0,-32.0,-35.0,-57.0,-27.0,-53.0,-70.0,-3.0,122.0,1
-21.0,-22.0,-23.0,-28.0,-28.0,-29.0,-20.0,-19.0,-117.0,-79.0,-96.0,-56.0,-85.0,-88.0,-77.0,-35.0,1
0.0,-3.0,-2.0,-1.0,-1.0,-6.0,0.0,-2.0,32.0,21.0,28.0,15.0,11.0,15.0,13.0,-18.0,1
9.0,5.0,7.0,10.0,14.0,16.0,19.0,15.0,-107.0,-66.0,-70.0,-39.0,-27.0,-25.0,5.0,75.0,1
19.0,19.0,17.0,16.0,10.0,8.0,9.0,9.0,163.0,111.0,88.0,68.0,68.0,67.0,32.0,-109.0,1
-23.0,-23.0,-27.0,-24.0,-19.0,-19.0,-15.0,-14.0,15.0,24.0,38.0,16.0,4.0,2.0,7.0,10.0,1
10.0,13.0,14.0,14.0,16.0,16.0,17.0,13.0,19.0,23.0,23.0,10.0,20.0,19.0,9.0,-11.0,1
-35.0,-38.0,-44.0,-33.0,-27.0,-22.0,-19.0,-13.0,-32.0,51.0,73.0,48.0,56.0,78.0,85.0,27.0,1
-24.0,-27.0,-26.0,-31.0,-33.0,-33.0,-36.0,-37.0,-16.0,-21.0,-18.0,-12.0,-19.0,-24.0,-28.0,-20.0,1
5.0,8.0,8.0,16.0,24.0,22.0,1.0,33.0,886.0,567.0,496.0,354.0,317.0,380.0,389.0,85.0,1
13.0,14.0,14.0,10.0,11.0,11.0,22.0,17.0,134.0,-236.0,-337.0,-252.0,-273.0,-352.0,-404.0,-130.0,1
27.0,30.0,31.0,28.0,30.0,27.0,33.0,32.0,-195.0,-206.0,-218.0,-143.0,-152.0,-178.0,-142.0,100.0,1
-19.0,-22.0,-23.0,-23.0,-25.0,-30.0,-15.0,-20.0,-632.0,-483.0,-461.0,-315.0,-273.0,-300.0,-210.0,336.0,1
-16.0,-15.0,-14.0,-14.0,-14.0,-13.0,-16.0,-15.0,-17.0,-10.0,-5.0,-5.0,-7.0,-8.0,-12.0,-14.0,1
19.0,19.0,20.0,18.0,10.0,9.0,11.0,1.0,-124.0,-161.0,-214.0,-141.0,-154.0,-178.0,-142.0,55.0,1
-20.0,-23.0,-26.0,-29.0,-26.0,-22.0,-14.0,-14.0,-27.0,-47.0,-69.0,-49.0,-44.0,-44.0,-45.0,6.0,1
-30.0,-32.0,-32.0,-31.0,-25.0,-11.0,-7.0,-27.0,23.0,11.0,93.0,-7.0,8.0,5.0,10.0,-5.0,1
21.0,21.0,21.0,21.0,15.0,14.0,14.0,20.0,217.0,164.0,146.0,105.0,92.0,85.0,33.0,-154.0,1
-12.0,-9.0,-5.0,8.0,4.0,7.0,5.0,-2.0,-367.0,-178.0,-78.0,-59.0,-33.0,-31.0,-50.0,-36.0,1
-4.0,-6.0,-6.0,-3.0,-2.0,-4.0,5.0,2.0,41.0,19.0,10.0,-1.0,2.0,-3.0,-16.0,-38.0,1
-6.0,-7.0,-7.0,-2.0,0.0,0.0,1.0,0.0,17.0,23.0,32.0,30.0,27.0,20.0,18.0,1.0,1
-52.0,-52.0,-59.0,-65.0,-64.0,-64.0,-61.0,-55.0,55.0,107.0,135.0,91.0,63.0,70.0,72.0,-39.0,1
-18.0,-19.0,-22.0,-25.0,-17.0,-9.0,1.0,2.0,-10.0,-11.0,-15.0,-16.0,-22.0,-21.0,-18.0,-7.0,1
-18.0,-18.0,-19.0,-19.0,-18.0,-21.0,-21.0,-22.0,0.0,-3.0,5.0,5.0,4.0,1.0,-18.0,-46.0,1
-37.0,-39.0,-40.0,-36.0,-32.0,-34.0,-41.0,-31.0,213.0,126.0,104.0,68.0,45.0,50.0,6.0,-75.0,1
-7.0,-9.0,-10.0,-7.0,-8.0,-8.0,1.0,0.0,34.0,10.0,8.0,-6.0,4.0,2.0,-6.0,-34.0,1
-3.0,-3.0,-4.0,-4.0,-8.0,-11.0,-8.0,-8.0,-7.0,-9.0,-11.0,-12.0,1.0,2.0,-8.0,-8.0,1
14.0,14.0,13.0,7.0,11.0,16.0,12.0,10.0,15.0,13.0,14.0,12.0,-3.0,-4.0,-1.0,16.0,1
-1.0,-2.0,0.0,-4.0,0.0,1.0,3.0,7.0,14.0,74.0,82.0,59.0,56.0,64.0,87.0,76.0,1
-14.0,-17.0,-17.0,-14.0,-14.0,-20.0,-3.0,-9.0,-330.0,-188.0,-167.0,-119.0,-73.0,-73.0,12.0,318.0,1
1.0,3.0,1.0,3.0,2.0,3.0,8.0,10.0,2.0,-1.0,-5.0,-10.0,-5.0,-4.0,1.0,-5.0,1
-2.0,-2.0,1.0,0.0,1.0,2.0,3.0,3.0,-26.0,-16.0,-16.0,-22.0,-9.0,1.0,-8.0,-7.0,1
-28.0,-25.0,-23.0,-25.0,-24.0,-23.0,-25.0,-26.0,-160.0,-143.0,-163.0,-114.0,-124.0,-135.0,-86.0,108.0,1
4.0,5.0,6.0,8.0,4.0,5.0,10.0,14.0,24.0,27.0,40.0,28.0,24.0,11.0,3.0,-40.0,1
9.0,5.0,6.0,8.0,12.0,14.0,22.0,9.0,-9.0,-11.0,-18.0,-8.0,6.0,-10.0,-2.0,2.0,1
13.0,12.0,7.0,6.0,5.0,2.0,10.0,15.0,39.0,31.0,37.0,12.0,8.0,4.0,-4.0,-29.0,1
-42.0,-40.0,-39.0,-31.0,-25.0,-16.0,-10.0,-18.0,-46.0,-60.0,-54.0,-27.0,-13.0,-19.0,-12.0,-28.0,1
-19.0,-23.0,-24.0,-24.0,-21.0,-18.0,-17.0,-14.0,17.0,10.0,10.0,0.0,3.0,4.0,-1.0,-13.0,1
7.0,7.0,7.0,3.0,7.0,10.0,4.0,9.0,5.0,-1.0,-5.0,1.0,-3.0,-5.0,-13.0,2.0,1
-1.0,-1.0,-3.0,-3.0,1.0,3.0,0.0,3.0,69.0,56.0,61.0,46.0,46.0,45.0,31.0,-55.0,1
2.0,3.0,1.0,-4.0,-7.0,-7.0,-3.0,2.0,11.0,9.0,1.0,25.0,-3.0,7.0,13.0,19.0,1
-46.0,-47.0,-47.0,-45.0,-43.0,-41.0,-43.0,-42.0,-33.0,-26.0,-27.0,-9.0,-18.0,-19.0,-22.0,-32.0,1
-54.0,-52.0,-58.0,-77.0,-71.0,-71.0,-59.0,-54.0,-152.0,-183.0,-217.0,-139.0,-165.0,-198.0,-187.0,43.0,1
-35.0,-39.0,-42.0,-49.0,-45.0,-37.0,-27.0,-35.0,-158.0,-123.0,-153.0,-97.0,-79.0,-75.0,-53.0,-43.0,1
-12.0,-12.0,-12.0,-11.0,-11.0,-10.0,-7.0,-8.0,40.0,8.0,-18.0,-20.0,-23.0,-22.0,-12.0,42.0,1
-9.0,-8.0,-7.0,-9.0,-12.0,-9.0,-15.0,-12.0,4.0,5.0,17.0,0.0,5.0,6.0,-2.0,-9.0,1
-33.0,-28.0,-27.0,-29.0,-28.0,-26.0,-21.0,-25.0,-128.0,-156.0,-200.0,-117.0,-109.0,-121.0,-109.0,20.0,1
31.0,29.0,34.0,34.0,32.0,29.0,29.0,28.0,9.0,9.0,17.0,42.0,20.0,5.0,7.0,0.0,1
-12.0,-11.0,-10.0,-14.0,-19.0,-25.0,-12.0,-11.0,-77.0,-418.0,-537.0,-387.0,-410.0,-502.0,-578.0,-194.0,1
-10.0,-7.0,-10.0,-9.0,-8.0,-10.0,-6.0,-15.0,-196.0,-221.0,-256.0,-181.0,-180.0,-215.0,-173.0,40.0,1
9.0,8.0,8.0,6.0,6.0,3.0,7.0,8.0,-14.0,-32.0,-65.0,-46.0,-45.0,-53.0,-33.0,35.0,1
35.0,38.0,37.0,43.0,36.0,30.0,19.0,28.0,144.0,86.0,78.0,36.0,25.0,61.0,45.0,29.0,1
29.0,26.0,26.0,30.0,30.0,31.0,37.0,41.0,10.0,8.0,5.0,-7.0,0.0,-2.0,0.0,5.0,1
12.0,12.0,14.0,12.0,5.0,2.0,-2.0,0.0,-3.0,6.0,-17.0,1.0,9.0,13.0,42.0,70.0,1
0.0,1.0,1.0,-4.0,-1.0,3.0,-4.0,0.0,47.0,-132.0,-253.0,-150.0,-201.0,-235.0,-225.0,48.0,1
10.0,11.0,11.0,10.0,10.0,11.0,4.0,8.0,27.0,22.0,33.0,17.0,19.0,21.0,18.0,2.0,1
-28.0,-28.0,-28.0,-31.0,-29.0,-28.0,-11.0,-18.0,-144.0,-59.0,-39.0,-28.0,-16.0,-21.0,-1.0,-9.0,1
-35.0,-38.0,-42.0,-46.0,-38.0,-32.0,-32.0,-32.0,-11.0,-15.0,-16.0,-22.0,-20.0,-17.0,-26.0,-16.0,1
21.0,22.0,24.0,32.0,35.0,38.0,39.0,43.0,-40.0,8.0,9.0,31.0,26.0,33.0,57.0,161.0,1
-9.0,-8.0,-9.0,-8.0,-5.0,-5.0,0.0,0.0,-327.0,-237.0,-208.0,-163.0,-120.0,-132.0,-101.0,136.0,1
17.0,20.0,21.0,23.0,24.0,18.0,17.0,19.0,-4.0,2.0,10.0,8.0,5.0,5.0,2.0,9.0,1
-19.0,-18.0,-20.0,-23.0,-27.0,-20.0,-20.0,-16.0,-66.0,-51.0,-52.0,-24.0,-28.0,-28.0,-8.0,52.0,1
53.0,49.0,45.0,42.0,33.0,25.0,16.0,32.0,271.0,160.0,113.0,70.0,55.0,64.0,10.0,-90.0,1
22.0,23.0,23.0,20.0,22.0,22.0,26.0,25.0,62.0,100.0,116.0,108.0,77.0,85.0,95.0,-19.0,1
13.0,14.0,14.0,13.0,15.0,19.0,25.0,24.0,-6.0,0.0,5.0,16.0,17.0,18.0,20.0,13.0,1
22.0,15.0,8.0,-5.0,-7.0,-11.0,-7.0,-3.0,23.0,19.0,24.0,9.0,3.0,5.0,3.0,11.0,1
19.0,19.0,20.0,19.0,19.0,15.0,20.0,19.0,29.0,19.0,15.0,17.0,17.0,13.0,7.0,-15.0,1
-4.0,-5.0,-4.0,-1.0,0.0,1.0,3.0,3.0,25.0,58.0,82.0,55.0,52.0,59.0,58.0,-16.0,1
25.0,27.0,29.0,30.0,31.0,26.0,29.0,24.0,11.0,37.0,58.0,35.0,42.0,39.0,43.0,-17.0,1
-8.0,-8.0,-8.0,-11.0,-10.0,-11.0,-19.0,-18.0,-152.0,-384.0,-385.0,-263.0,-264.0,-347.0,-510.0,-547.0,1
-41.0,-42.0,-46.0,-42.0,-41.0,-41.0,-45.0,-43.0,-18.0,-14.0,-16.0,-20.0,-15.0,-9.0,-14.0,-23.0,1
74.0,81.0,86.0,97.0,90.0,80.0,61.0,87.0,302.0,206.0,224.0,168.0,91.0,120.0,87.0,5.0,1
-15.0,-15.0,-17.0,-18.0,-11.0,-6.0,0.0,2.0,-70.0,-123.0,-177.0,-130.0,-131.0,-155.0,-152.0,42.0,1
-5.0,-5.0,-5.0,-8.0,-8.0,-8.0,-14.0,-12.0,-196.0,-387.0,-374.0,-249.0,-247.0,-327.0,-498.0,-601.0,1
-8.0,-11.0,-16.0,-22.0,-22.0,-20.0,-20.0,-14.0,25.0,81.0,85.0,62.0,50.0,55.0,72.0,73.0,1
27.0,26.0,29.0,27.0,29.0,29.0,27.0,17.0,32.0,20.0,39.0,25.0,19.0,14.0,31.0,28.0,1
35.0,34.0,32.0,27.0,17.0,10.0,14.0,16.0,12.0,16.0,9.0,12.0,0.0,-9.0,-16.0,3.0,1
-5.0,-4.0,-10.0,-17.0,-11.0,-8.0,-2.0,-5.0,-252.0,-224.0,-218.0,-152.0,-137.0,-157.0,-136.0,41.0,1
14.0,13.0,15.0,13.0,11.0,8.0,8.0,13.0,17.0,17.0,19.0,12.0,14.0,1.0,2.0,-8.0,1
-3.0,-2.0,-3.0,1.0,2.0,0.0,4.0,2.0,-44.0,-31.0,-15.0,-35.0,-16.0,-14.0,-12.0,15.0,1
33.0,34.0,35.0,33.0,31.0,33.0,33.0,37.0,12.0,12.0,12.0,16.0,17.0,18.0,11.0,9.0,1
7.0,6.0,7.0,6.0,7.0,8.0,21.0,15.0,162.0,195.0,221.0,149.0,143.0,152.0,147.0,-66.0,1
-44.0,-45.0,-48.0,-49.0,-41.0,-36.0,-30.0,-30.0,14.0,8.0,14.0,-6.0,-9.0,-9.0,-10.0,-16.0,1
-16.0,-15.0,-14.0,-13.0,-12.0,-8.0,-5.0,-4.0,-18.0,-17.0,-13.0,-20.0,-20.0,-20.0,-24.0,-27.0,1
23.0,21.0,21.0,21.0,19.0,17.0,17.0,19.0,16.0,10.0,16.0,12.0,4.0,5.0,0.0,10.0,1
6.0,2.0,-2.0,-3.0,-2.0,0.0,7.0,-12.0,19.0,1.0,17.0,11.0,-14.0,-6.0,39.0,1.0,1
4.0,3.0,3.0,6.0,6.0,4.0,2.0,1.0,34.0,7.0,3.0,-12.0,-9.0,-3.0,-10.0,-29.0,1
14.0,17.0,17.0,14.0,13.0,10.0,5.0,3.0,15.0,19.0,14.0,15.0,8.0,1.0,3.0,0.0,1
3.0,0.0,0.0,4.0,4.0,6.0,7.0,4.0,94.0,192.0,193.0,128.0,145.0,164.0,189.0,95.0,1
1.0,-3.0,-2.0,-2.0,-1.0,-4.0,-1.0,-4.0,33.0,21.0,22.0,10.0,3.0,10.0,10.0,-16.0,1
0.0,-2.0,-6.0,-10.0,-11.0,-14.0,-13.0,-12.0,-24.0,-24.0,-42.0,-33.0,-20.0,-19.0,-15.0,-13.0,1
19.0,21.0,25.0,27.0,19.0,14.0,25.0,27.0,-35.0,-41.0,-41.0,-23.0,-8.0,-31.0,-40.0,-64.0,1
32.0,27.0,21.0,15.0,23.0,22.0,6.0,26.0,243.0,157.0,176.0,120.0,66.0,89.0,69.0,5.0,1
8.0,6.0,8.0,9.0,12.0,8.0,9.0,11.0,72.0,102.0,141.0,78.0,88.0,85.0,65.0,-71.0,1
-38.0,-37.0,-38.0,-39.0,-35.0,-32.0,-23.0,-23.0,-113.0,-159.0,-214.0,-113.0,-122.0,-142.0,-136.0,13.0,1
-82.0,-87.0,-94.0,-86.0,-70.0,-60.0,-48.0,-44.0,-22.0,-17.0,-4.0,-20.0,-13.0,-12.0,-32.0,-38.0,1
1.0,0.0,0.0,0.0,-2.0,-2.0,-4.0,-5.0,3.0,5.0,8.0,7.0,5.0,8.0,6.0,6.0,1
2.0,3.0,5.0,11.0,7.0,5.0,2.0,3.0,-236.0,-56.0,81.0,15.0,54.0,59.0,3.0,-138.0,1
-33.0,-30.0,-27.0,-32.0,-34.0,-33.0,-30.0,-44.0,-186.0,-225.0,-271.0,-180.0,-185.0,-209.0,-182.0,9.0,1
-78.0,-73.0,-70.0,-66.0,-61.0,-60.0,-59.0,-64.0,-119.0,-143.0,-182.0,-111.0,-129.0,-146.0,-141.0,-5.0,1
-24.0,-26.0,-25.0,-24.0,-23.0,-22.0,-26.0,-24.0,-18.0,65.0,89.0,57.0,64.0,81.0,90.0,35.0,1
-20.0,-22.0,-21.0,-27.0,-26.0,-24.0,-28.0,-26.0,-10.0,-10.0,-20.0,-11.0,-25.0,-20.0,-21.0,-11.0,1
-13.0,-11.0,-9.0,-14.0,-18.0,-26.0,-18.0,-19.0,-49.0,-8.0,-8.0,-12.0,-20.0,-21.0,-7.0,24.0,1
25.0,29.0,31.0,27.0,27.0,24.0,29.0,29.0,-196.0,-206.0,-223.0,-153.0,-159.0,-180.0,-146.0,96.0,1
31.0,28.0,26.0,29.0,32.0,37.0,46.0,51.0,22.0,26.0,28.0,27.0,21.0,20.0,24.0,16.0,1
13.0,14.0,13.0,7.0,13.0,15.0,14.0,18.0,106.0,119.0,118.0,125.0,86.0,101.0,107.0,27.0,1
-34.0,-28.0,-26.0,-29.0,-30.0,-24.0,-19.0,-22.0,-371.0,-222.0,-150.0,-97.0,-52.0,-56.0,-45.0,-67.0,1
-14.0,-13.0,-16.0,-14.0,-15.0,-14.0,-17.0,-19.0,-6.0,-1.0,1.0,-18.0,-18.0,-16.0,-17.0,-16.0,1
-5.0,-5.0,-6.0,-4.0,-8.0,-7.0,-7.0,-5.0,-17.0,-11.0,-6.0,-6.0,-9.0,-5.0,1.0,10.0,1
-40.0,-43.0,-42.0,-34.0,-26.0,-22.0,-19.0,-23.0,18.0,0.0,24.0,-67.0,-62.0,-26.0,18.0,-17.0,1
-10.0,-9.0,-7.0,-10.0,-12.0,-12.0,-7.0,-5.0,-107.0,-172.0,-232.0,-140.0,-150.0,-178.0,-179.0,31.0,1
51.0,55.0,64.0,63.0,54.0,43.0,31.0,23.0,7.0,3.0,-2.0,21.0,22.0,20.0,23.0,9.0,1
-5.0,-1.0,3.0,1.0,0.0,-2.0,0.0,-5.0,-114.0,-143.0,-181.0,-101.0,-113.0,-132.0,-121.0,32.0,1
-31.0,-31.0,-30.0,-28.0,-30.0,-31.0,-31.0,-27.0,-10.0,24.0,0.0,-3.0,14.0,34.0,59.0,49.0,1
14.0,12.0,12.0,13.0,15.0,11.0,14.0,12.0,17.0,11.0,19.0,-2.0,12.0,7.0,7.0,-10.0,1
-23.0,-23.0,-20.0,-15.0,-12.0,-12.0,-11.0,-13.0,0.0,8.0,21.0,13.0,11.0,5.0,5.0,-12.0,1
-5.0,-3.0,-4.0,-7.0,-10.0,-9.0,-2.0,0.0,-238.0,-249.0,-256.0,-188.0,-182.0,-196.0,-166.0,70.0,1
-26.0,-28.0,-29.0,-32.0,-34.0,-36.0,-38.0,-36.0,2.0,-9.0,-9.0,-6.0,-13.0,-20.0,-18.0,-21.0,1
-7.0,-9.0,-10.0,-8.0,-7.0,-7.0,1.0,-2.0,115.0,192.0,214.0,122.0,148.0,157.0,159.0,-41.0,1
12.0,14.0,14.0,14.0,14.0,15.0,16.0,16.0,12.0,8.0,8.0,8.0,9.0,15.0,7.0,2.0,1
11.0,9.0,9.0,10.0,11.0,11.0,10.0,7.0,15.0,24.0,38.0,34.0,29.0,35.0,38.0,26.0,1
4.0,4.0,3.0,3.0,1.0,-1.0,-2.0,1.0,12.0,7.0,11.0,16.0,15.0,18.0,11.0,8.0,1
5.0,6.0,5.0,6.0,7.0,4.0,4.0,2.0,-52.0,-32.0,-15.0,-34.0,-10.0,-13.0,-8.0,24.0,1
-6.0,-5.0,-6.0,-10.0,-4.0,2.0,8.0,9.0,46.0,78.0,88.0,71.0,64.0,82.0,87.0,-26.0,1
19.0,16.0,16.0,19.0,21.0,20.0,18.0,16.0,25.0,52.0,74.0,50.0,54.0,55.0,44.0,-22.0,1
42.0,46.0,48.0,46.0,35.0,22.0,14.0,27.0,286.0,211.0,180.0,86.0,62.0,55.0,3.0,-184.0,1
-26.0,-26.0,-25.0,-29.0,-30.0,-28.0,-30.0,-23.0,2.0,-340.0,-431.0,-295.0,-330.0,-417.0,-510.0,-259.0,1
-20.0,-20.0,-22.0,-28.0,-26.0,-24.0,-24.0,-27.0,-36.0,-63.0,-92.0,-51.0,-56.0,-75.0,-82.0,3.0,1
23.0,24.0,24.0,20.0,21.0,22.0,22.0,28.0,-30.0,-13.0,-18.0,16.0,9.0,10.0,21.0,60.0,1
21.0,21.0,20.0,16.0,12.0,12.0,6.0,5.0,29.0,14.0,17.0,25.0,31.0,26.0,14.0,1.0,1
11.0,14.0,14.0,12.0,11.0,10.0,7.0,4.0,-40.0,-54.0,-90.0,-49.0,-60.0,-71.0,-66.0,13.0,1
17.0,15.0,19.0,18.0,17.0,17.0,25.0,24.0,-119.0,-75.0,-73.0,-32.0,-32.0,-46.0,-28.0,46.0,1
17.0,18.0,18.0,22.0,23.0,21.0,23.0,20.0,-227.0,-163.0,-150.0,-113.0,-78.0,-93.0,-52.0,140.0,1
10.0,11.0,12.0,12.0,10.0,10.0,7.0,8.0,9.0,10.0,12.0,10.0,11.0,9.0,6.0,8.0,1
-2.0,0.0,1.0,-7.0,-3.0,3.0,5.0,0.0,-51.0,-90.0,-133.0,-66.0,-33.0,-68.0,-95.0,29.0,1
-63.0,-62.0,-63.0,-61.0,-58.0,-56.0,-54.0,-65.0,-243.0,-267.0,-307.0,-211.0,-197.0,-244.0,-225.0,2.0,1
-11.0,-9.0,-10.0,-7.0,-8.0,-5.0,-2.0,3.0,38.0,31.0,24.0,-1.0,21.0,7.0,-33.0,-64.0,1
-14.0,-12.0,-13.0,-13.0,-15.0,-16.0,-22.0,-22.0,-27.0,-13.0,-32.0,-20.0,-15.0,-18.0,-19.0,-26.0,1
-14.0,-17.0,-17.0,-17.0,-15.0,-22.0,-23.0,-21.0,2.0,5.0,8.0,6.0,-1.0,-7.0,2.0,-7.0,1
60.0,65.0,66.0,62.0,54.0,39.0,33.0,27.0,-136.0,-222.0,-282.0,-144.0,-132.0,-158.0,-170.0,57.0,1
1.0,4.0,4.0,4.0,3.0,-1.0,6.0,4.0,-32.0,-55.0,-88.0,-28.0,-47.0,-58.0,-54.0,38.0,1
-9.0,-11.0,-14.0,-16.0,-14.0,-13.0,-14.0,-11.0,1.0,-4.0,0.0,6.0,2.0,5.0,-5.0,-8.0,1
97.0,98.0,98.0,105.0,99.0,93.0,78.0,101.0,881.0,715.0,654.0,460.0,425.0,508.0,453.0,-155.0,1
5.0,5.0,6.0,7.0,7.0,8.0,7.0,9.0,13.0,7.0,6.0,1.0,7.0,13.0,6.0,-3.0,1
-3.0,-2.0,1.0,0.0,0.0,3.0,6.0,-2.0,-5.0,-14.0,-13.0,-5.0,-9.0,-14.0,-4.0,-3.0,1
22.0,21.0,21.0,23.0,21.0,28.0,27.0,21.0,42.0,35.0,55.0,31.0,30.0,17.0,37.0,25.0,1
23.0,21.0,17.0,22.0,29.0,27.0,22.0,37.0,209.0,145.0,152.0,92.0,74.0,101.0,60.0,26.0,1
-12.0,-10.0,-4.0,-4.0,-7.0,-12.0,-19.0,-22.0,17.0,-5.0,15.0,22.0,3.0,0.0,5.0,-13.0,1
-20.0,-14.0,-14.0,-8.0,-2.0,-4.0,-11.0,6.0,10.0,8.0,40.0,-11.0,-32.0,26.0,28.0,111.0,1
-21.0,-23.0,-23.0,-25.0,-25.0,-24.0,-14.0,-20.0,149.0,180.0,203.0,134.0,119.0,139.0,141.0,-69.0,1
-18.0,-18.0,-18.0,-19.0,-17.0,-16.0,-15.0,-15.0,-12.0,-10.0,-15.0,-4.0,-11.0,-8.0,-9.0,-14.0,1
41.0,42.0,44.0,43.0,36.0,23.0,3.0,21.0,226.0,152.0,136.0,90.0,63.0,103.0,78.0,-5.0,1
3.0,-1.0,0.0,-1.0,2.0,6.0,5.0,2.0,8.0,5.0,8.0,-2.0,-1.0,-3.0,5.0,-1.0,1
-32.0,-31.0,-28.0,-29.0,-26.0,-23.0,-22.0,-24.0,-271.0,-236.0,-236.0,-148.0,-135.0,-142.0,-107.0,62.0,1
-44.0,-50.0,-53.0,-60.0,-68.0,-81.0,-67.0,-67.0,-81.0,-96.0,-98.0,-75.0,-55.0,-72.0,-91.0,-120.0,1
0.0,7.0,15.0,16.0,12.0,12.0,12.0,5.0,-87.0,-114.0,-155.0,-97.0,-96.0,-107.0,-87.0,63.0,1
-1.0,-1.0,-1.0,-6.0,-12.0,-15.0,-20.0,-16.0,61.0,73.0,69.0,48.0,35.0,43.0,48.0,-4.0,1
-7.0,-9.0,-10.0,-7.0,-8.0,-8.0,5.0,6.0,-289.0,-168.0,-164.0,-112.0,-73.0,-77.0,9.0,311.0,1
-38.0,-44.0,-49.0,-61.0,-50.0,-43.0,-37.0,-34.0,-1.0,9.0,23.0,-14.0,-14.0,-12.0,-10.0,-15.0,1
7.0,7.0,5.0,2.0,2.0,5.0,16.0,17.0,-57.0,-103.0,-148.0,-82.0,-64.0,-105.0,-119.0,27.0,1
12.0,8.0,10.0,10.0,11.0,8.0,15.0,12.0,150.0,175.0,212.0,132.0,139.0,148.0,138.0,-78.0,1
0.0,2.0,3.0,2.0,1.0,-4.0,-14.0,-1.0,169.0,118.0,121.0,59.0,42.0,70.0,28.0,-11.0,1
-12.0,-16.0,-19.0,-15.0,-9.0,-7.0,-13.0,1.0,134.0,56.0,59.0,50.0,21.0,43.0,31.0,20.0,1
-25.0,-19.0,-11.0,-11.0,-18.0,-23.0,-16.0,-19.0,-136.0,-181.0,-244.0,-169.0,-172.0,-197.0,-173.0,-1.0,1
-20.0,-19.0,-17.0,-19.0,-20.0,-17.0,-22.0,-23.0,-19.0,-12.0,-17.0,-6.0,-22.0,-20.0,-25.0,-19.0,1
-17.0,-20.0,-23.0,-16.0,-11.0,-9.0,-12.0,-8.0,18.0,8.0,24.0,-1.0,1.0,7.0,-1.0,-2.0,1
-4.0,-3.0,-4.0,-1.0,0.0,-3.0,-1.0,-2.0,-172.0,-123.0,-111.0,-85.0,-56.0,-63.0,-31.0,115.0,1
3.0,8.0,5.0,6.0,5.0,7.0,7.0,7.0,62.0,50.0,44.0,19.0,39.0,31.0,5.0,-35.0,1
-34.0,-37.0,-41.0,-42.0,-37.0,-33.0,-34.0,-31.0,39.0,14.0,28.0,3.0,10.0,6.0,-15.0,-35.0,1
11.0,8.0,7.0,6.0,1.0,-3.0,7.0,12.0,4.0,1.0,-1.0,-17.0,-17.0,-21.0,-15.0,-6.0,1
-6.0,-4.0,-1.0,-5.0,-6.0,-11.0,-10.0,-13.0,-170.0,-93.0,-85.0,-56.0,-50.0,-59.0,-74.0,-69.0,1
-54.0,-54.0,-56.0,-60.0,-59.0,-49.0,-43.0,-49.0,-253.0,-299.0,-339.0,-227.0,-233.0,-256.0,-233.0,-14.0,1
-10.0,-11.0,-10.0,-12.0,-10.0,-7.0,-7.0,-3.0,-7.0,-13.0,-9.0,-17.0,-10.0,-6.0,-16.0,-15.0,1
-5.0,-6.0,-8.0,-11.0,-10.0,-8.0,-4.0,-2.0,31.0,-39.0,-116.0,-63.0,-77.0,-88.0,-73.0,91.0,1
-3.0,-2.0,-3.0,-2.0,-1.0,-5.0,-2.0,-3.0,-4.0,2.0,8.0,-10.0,6.0,2.0,-1.0,-12.0,1
64.0,60.0,52.0,55.0,54.0,46.0,31.0,53.0,513.0,458.0,456.0,354.0,304.0,341.0,279.0,-152.0,1
-42.0,-43.0,-44.0,-43.0,-40.0,-34.0,-39.0,-39.0,-70.0,-74.0,-79.0,-33.0,-58.0,-46.0,-15.0,145.0,1
-63.0,-69.0,-77.0,-79.0,-71.0,-62.0,-48.0,-45.0,-15.0,5.0,23.0,-22.0,-26.0,-32.0,-38.0,-32.0,1
2.0,2.0,4.0,7.0,9.0,10.0,12.0,15.0,-63.0,-33.0,-47.0,-24.0,-38.0,-40.0,-1.0,84.0,1
21.0,21.0,21.0,18.0,17.0,13.0,14.0,9.0,-83.0,-45.0,-49.0,-19.0,-10.0,-9.0,15.0,64.0,1
-11.0,-11.0,-11.0,-16.0,-16.0,-17.0,-10.0,-11.0,32.0,-378.0,-442.0,-334.0,-345.0,-448.0,-581.0,-414.0,1
-3.0,-3.0,-1.0,0.0,-4.0,-3.0,-7.0,-7.0,75.0,84.0,84.0,58.0,59.0,68.0,61.0,-23.0,1
-39.0,-38.0,-37.0,-36.0,-37.0,-36.0,-35.0,-35.0,-330.0,-225.0,-147.0,-137.0,-77.0,-94.0,-111.0,-66.0,1
-4.0,-7.0,-7.0,-16.0,-20.0,-24.0,-18.0,-23.0,-271.0,-192.0,-167.0,-127.0,-94.0,-97.0,-70.0,80.0,1
-4.0,-2.0,-2.0,1.0,3.0,5.0,3.0,3.0,-4.0,-2.0,-4.0,-9.0,1.0,5.0,0.0,0.0,1
-37.0,-42.0,-43.0,-40.0,-24.0,-17.0,-13.0,-9.0,-15.0,-15.0,-13.0,-19.0,-8.0,-10.0,-13.0,-24.0,1
0.0,-1.0,3.0,4.0,3.0,6.0,7.0,10.0,86.0,137.0,158.0,98.0,82.0,97.0,108.0,-4.0,1
-32.0,-33.0,-31.0,-30.0,-28.0,-28.0,-26.0,-27.0,-26.0,-32.0,-39.0,-43.0,-32.0,-26.0,-33.0,-21.0,1
-53.0,-55.0,-57.0,-55.0,-57.0,-56.0,-55.0,-53.0,-60.0,-35.0,-24.0,-43.0,-46.0,-53.0,-46.0,-26.0,1
-37.0,-41.0,-42.0,-37.0,-34.0,-27.0,-37.0,-40.0,78.0,34.0,64.0,19.0,7.0,29.0,40.0,-19.0,1
19.0,17.0,12.0,7.0,5.0,0.0,-6.0,-5.0,99.0,143.0,155.0,110.0,112.0,131.0,132.0,15.0,1
20.0,25.0,27.0,29.0,22.0,17.0,21.0,14.0,-211.0,-249.0,-277.0,-154.0,-152.0,-186.0,-159.0,43.0,1
-29.0,-34.0,-37.0,-40.0,-35.0,-18.0,-7.0,-1.0,-19.0,-16.0,-9.0,-31.0,-22.0,-21.0,-27.0,-24.0,1
-65.0,-66.0,-68.0,-69.0,-60.0,-56.0,-52.0,-47.0,-23.0,-32.0,-35.0,-33.0,-29.0,-26.0,-30.0,-11.0,1
-20.0,-22.0,-21.0,-18.0,-17.0,-19.0,-10.0,-12.0,31.0,4.0,0.0,-12.0,-5.0,-7.0,-14.0,-39.0,1
25.0,27.0,32.0,30.0,30.0,27.0,25.0,28.0,-22.0,55.0,77.0,58.0,67.0,78.0,89.0,28.0,1
17.0,17.0,19.0,16.0,19.0,21.0,27.0,27.0,-3.0,-15.0,-37.0,-19.0,-30.0,-32.0,-37.0,22.0,1
-8.0,-11.0,-9.0,-8.0,-9.0,-14.0,-16.0,-14.0,69.0,98.0,141.0,69.0,85.0,93.0,64.0,-91.0,1
0.0,0.0,4.0,6.0,5.0,6.0,11.0,12.0,-54.0,-39.0,-45.0,-31.0,-28.0,-24.0,19.0,100.0,1
61.0,62.0,60.0,64.0,54.0,41.0,13.0,42.0,884.0,614.0,545.0,355.0,337.0,411.0,405.0,13.0,1
21.0,19.0,20.0,16.0,12.0,12.0,14.0,16.0,6.0,4.0,5.0,-1.0,-14.0,-20.0,-16.0,-8.0,1
17.0,19.0,19.0,21.0,15.0,10.0,3.0,0.0,42.0,51.0,38.0,29.0,21.0,27.0,60.0,58.0,1
2.0,3.0,5.0,4.0,2.0,0.0,-1.0,1.0,104.0,103.0,101.0,79.0,68.0,80.0,77.0,-23.0,1
-13.0,-16.0,-15.0,-16.0,-16.0,-21.0,-15.0,-19.0,18.0,8.0,11.0,-1.0,-11.0,-8.0,-4.0,-18.0,1
14.0,13.0,13.0,10.0,12.0,14.0,11.0,10.0,12.0,8.0,2.0,3.0,-1.0,2.0,-3.0,10.0,1
-19.0,-18.0,-16.0,-20.0,-25.0,-27.0,-18.0,-18.0,-127.0,-147.0,-195.0,-125.0,-139.0,-170.0,-142.0,29.0,1
17.0,19.0,19.0,21.0,22.0,21.0,24.0,23.0,-210.0,-141.0,-113.0,-97.0,-62.0,-77.0,-66.0,42.0,1
-77.0,-80.0,-85.0,-88.0,-85.0,-83.0,-86.0,-85.0,159.0,65.0,12.0,33.0,41.0,45.0,20.0,-130.0,1
-25.0,-23.0,-22.0,-22.0,-27.0,-24.0,-18.0,-25.0,-261.0,-300.0,-331.0,-255.0,-241.0,-263.0,-233.0,-6.0,1
5.0,2.0,4.0,5.0,7.0,13.0,10.0,7.0,10.0,8.0,10.0,4.0,3.0,0.0,5.0,-1.0,1
7.0,4.0,5.0,4.0,5.0,8.0,8.0,9.0,14.0,7.0,3.0,5.0,5.0,7.0,11.0,11.0,1
-9.0,-8.0,-9.0,-9.0,-6.0,-9.0,-3.0,-4.0,-8.0,0.0,3.0,-15.0,2.0,-1.0,-2.0,-13.0,1
-33.0,-36.0,-42.0,-40.0,-39.0,-34.0,-40.0,-42.0,-262.0,-231.0,-222.0,-158.0,-156.0,-169.0,-145.0,97.0,1
19.0,21.0,24.0,27.0,21.0,17.0,17.0,16.0,39.0,23.0,29.0,12.0,17.0,25.0,16.0,-32.0,1
-6.0,-4.0,-7.0,-9.0,-5.0,-5.0,3.0,3.0,13.0,19.0,23.0,8.0,-18.0,-33.0,-13.0,1.0,1
41.0,43.0,41.0,33.0,30.0,39.0,41.0,38.0,-267.0,-205.0,-197.0,-128.0,-97.0,-103.0,-64.0,108.0,1
17.0,21.0,26.0,25.0,22.0,17.0,23.0,21.0,-182.0,-432.0,-505.0,-355.0,-347.0,-430.0,-536.0,-339.0,1
-1.0,0.0,-1.0,0.0,-2.0,-3.0,-9.0,-7.0,-245.0,-50.0,64.0,35.0,118.0,109.0,69.0,-92.0,1
6.0,7.0,8.0,11.0,9.0,4.0,0.0,1.0,14.0,5.0,10.0,-2.0,4.0,10.0,2.0,-4.0,1
0.0,3.0,0.0,1.0,-2.0,2.0,4.0,5.0,-23.0,-11.0,-24.0,10.0,4.0,-11.0,1.0,8.0,1
-22.0,-21.0,-20.0,-21.0,-17.0,-14.0,-12.0,-10.0,-8.0,-8.0,-14.0,-9.0,-11.0,-11.0,-17.0,-15.0,1
29.0,31.0,31.0,29.0,32.0,36.0,42.0,46.0,-14.0,3.0,-15.0,9.0,10.0,23.0,50.0,84.0,1
-20.0,-10.0,1.0,0.0,-11.0,-21.0,-30.0,-37.0,-111.0,-139.0,-194.0,-126.0,-112.0,-117.0,-103.0,-2.0,1
4.0,4.0,5.0,3.0,0.0,-1.0,-1.0,-4.0,19.0,25.0,25.0,11.0,12.0,19.0,23.0,17.0,1
4.0,3.0,3.0,-1.0,1.0,1.0,0.0,-3.0,6.0,-4.0,-8.0,-3.0,-4.0,-8.0,-22.0,20.0,1
1.0,2.0,4.0,4.0,4.0,6.0,8.0,10.0,-27.0,-40.0,-73.0,-38.0,-50.0,-56.0,-55.0,35.0,1
-8.0,-11.0,-9.0,-10.0,-8.0,-2.0,7.0,14.0,76.0,119.0,131.0,83.0,83.0,95.0,78.0,-29.0,1
-7.0,-9.0,-6.0,-7.0,-9.0,-9.0,-6.0,-19.0,-15.0,-21.0,-15.0,-23.0,-14.0,-19.0,-11.0,0.0,1
0.0,-7.0,-12.0,-18.0,-25.0,-32.0,-31.0,-26.0,-2.0,2.0,1.0,-7.0,-7.0,-3.0,-1.0,0.0,1
6.0,8.0,9.0,9.0,4.0,-4.0,2.0,1.0,11.0,0.0,1.0,3.0,7.0,8.0,0.0,-13.0,1
-39.0,-43.0,-48.0,-54.0,-49.0,-42.0,-30.0,-54.0,-35.0,-47.0,-51.0,-61.0,-47.0,-33.0,1.0,-44.0,1
-3.0,-1.0,-2.0,-1.0,-3.0,0.0,1.0,1.0,45.0,59.0,97.0,56.0,43.0,54.0,38.0,-152.0,1
3.0,2.0,2.0,0.0,0.0,-1.0,-1.0,2.0,79.0,72.0,81.0,41.0,32.0,38.0,27.0,-51.0,1
-2.0,-2.0,-2.0,-2.0,5.0,11.0,13.0,2.0,57.0,30.0,35.0,24.0,-7.0,7.0,56.0,3.0,1
-28.0,-25.0,-27.0,-15.0,-5.0,-8.0,-31.0,-6.0,240.0,164.0,177.0,118.0,72.0,91.0,49.0,92.0,1
47.0,52.0,61.0,60.0,57.0,50.0,49.0,53.0,72.0,98.0,91.0,105.0,80.0,87.0,102.0,-16.0,1
5.0,2.0,-1.0,0.0,8.0,12.0,14.0,14.0,-14.0,-35.0,-70.0,-35.0,-40.0,-36.0,-35.0,32.0,1
37.0,37.0,38.0,41.0,44.0,48.0,57.0,62.0,37.0,32.0,34.0,34.0,29.0,36.0,33.0,35.0,1
28.0,33.0,35.0,32.0,29.0,26.0,30.0,20.0,-198.0,-39.0,19.0,17.0,40.0,45.0,58.0,-17.0,1
-24.0,-25.0,-24.0,-20.0,-20.0,-18.0,-17.0,-16.0,14.0,19.0,33.0,13.0,0.0,-1.0,-7.0,-1.0,1
1.0,3.0,1.0,2.0,0.0,2.0,8.0,6.0,-179.0,-107.0,-62.0,-52.0,-45.0,-49.0,-45.0,-69.0,1
23.0,27.0,29.0,31.0,23.0,21.0,26.0,17.0,209.0,140.0,124.0,81.0,74.0,59.0,26.0,-194.0,1
26.0,21.0,13.0,12.0,9.0,6.0,-6.0,-1.0,60.0,23.0,54.0,34.0,20.0,51.0,68.0,34.0,1
-7.0,-10.0,-11.0,-18.0,-15.0,-12.0,-13.0,-11.0,76.0,84.0,74.0,92.0,55.0,76.0,87.0,25.0,1
-13.0,-15.0,-17.0,-20.0,-14.0,-13.0,-12.0,-8.0,91.0,97.0,98.0,64.0,58.0,64.0,45.0,-44.0,1
31.0,32.0,34.0,29.0,19.0,8.0,-7.0,3.0,78.0,35.0,38.0,8.0,-2.0,20.0,35.0,11.0,1
-20.0,-18.0,-19.0,-20.0,-20.0,-18.0,-6.0,-6.0,-180.0,-210.0,-248.0,-152.0,-153.0,-188.0,-167.0,23.0,1
6.0,10.0,8.0,7.0,7.0,13.0,18.0,21.0,277.0,233.0,242.0,160.0,121.0,140.0,108.0,-215.0,1
15.0,18.0,22.0,20.0,15.0,12.0,4.0,5.0,-12.0,-35.0,-55.0,-31.0,-21.0,-10.0,-12.0,4.0,1
-14.0,-12.0,-12.0,-13.0,-15.0,-12.0,-12.0,-10.0,284.0,234.0,242.0,156.0,116.0,138.0,108.0,-232.0,1
15.0,9.0,1.0,8.0,14.0,17.0,5.0,32.0,960.0,708.0,664.0,458.0,353.0,425.0,462.0,204.0,1
-24.0,-26.0,-24.0,-18.0,-12.0,-7.0,-4.0,-7.0,5.0,27.0,34.0,23.0,27.0,33.0,20.0,8.0,1
32.0,36.0,33.0,29.0,22.0,19.0,24.0,18.0,-73.0,-123.0,-172.0,-90.0,-92.0,-102.0,-88.0,63.0,1
5.0,5.0,6.0,9.0,10.0,9.0,11.0,12.0,36.0,33.0,34.0,26.0,17.0,13.0,11.0,8.0,1
2.0,-3.0,-8.0,-4.0,-6.0,-1.0,11.0,6.0,-288.0,-325.0,-356.0,-259.0,-216.0,-268.0,-250.0,15.0,1
43.0,45.0,48.0,50.0,47.0,45.0,48.0,49.0,-17.0,-4.0,-8.0,11.0,10.0,-14.0,2.0,48.0,1
-32.0,-34.0,-36.0,-35.0,-34.0,-33.0,-32.0,-29.0,0.0,6.0,17.0,5.0,0.0,7.0,-5.0,-11.0,1
-2.0,-2.0,-3.0,-3.0,-5.0,-9.0,-7.0,-11.0,-205.0,-123.0,-101.0,-78.0,-50.0,-61.0,-46.0,51.0,1
-18.0,-19.0,-22.0,-25.0,-25.0,-28.0,-19.0,-19.0,-27.0,-355.0,-495.0,-357.0,-383.0,-460.0,-485.0,-91.0,1
-13.0,-17.0,-15.0,-14.0,-15.0,-11.0,-3.0,-10.0,-268.0,-306.0,-338.0,-215.0,-177.0,-237.0,-222.0,19.0,1
10.0,11.0,11.0,12.0,9.0,7.0,2.0,0.0,-233.0,-204.0,-194.0,-138.0,-123.0,-139.0,-130.0,24.0,1
36.0,39.0,39.0,38.0,37.0,35.0,40.0,42.0,-24.0,-9.0,-12.0,8.0,2.0,-8.0,-1.0,35.0,1
4.0,6.0,4.0,4.0,4.0,3.0,10.0,12.0,40.0,26.0,16.0,25.0,-7.0,7.0,11.0,0.0,1
-8.0,-10.0,-18.0,-7.0,-1.0,10.0,19.0,27.0,-152.0,283.0,394.0,279.0,340.0,442.0,526.0,237.0,1
0.0,0.0,0.0,4.0,4.0,1.0,3.0,0.0,-39.0,-24.0,-9.0,-29.0,-9.0,-7.0,-6.0,23.0,1
31.0,40.0,37.0,33.0,31.0,32.0,35.0,21.0,210.0,165.0,116.0,138.0,60.0,68.0,40.0,-75.0,1
41.0,42.0,40.0,36.0,29.0,24.0,16.0,8.0,86.0,69.0,84.0,57.0,24.0,39.0,70.0,17.0,1
13.0,14.0,16.0,17.0,14.0,10.0,9.0,9.0,8.0,-7.0,-12.0,2.0,11.0,12.0,3.0,-5.0,1
-6.0,-6.0,-7.0,-6.0,-5.0,-9.0,-12.0,-14.0,-53.0,-39.0,-24.0,-48.0,-22.0,-23.0,-17.0,11.0,1
-17.0,-16.0,-18.0,-24.0,-20.0,-17.0,-9.0,-2.0,111.0,-99.0,-203.0,-107.0,-172.0,-200.0,-202.0,38.0,1
32.0,32.0,29.0,27.0,22.0,22.0,35.0,7.0,12.0,23.0,43.0,34.0,13.0,11.0,34.0,0.0,1
-15.0,-13.0,-12.0,-9.0,-11.0,-11.0,-14.0,-12.0,-29.0,-24.0,-22.0,-21.0,-14.0,-16.0,-24.0,-26.0,1
-31.0,-30.0,-29.0,-33.0,-35.0,-37.0,-39.0,-35.0,-73.0,-50.0,-63.0,-28.0,-31.0,-34.0,-4.0,54.0,1
-25.0,-28.0,-28.0,-27.0,-27.0,-33.0,-16.0,-23.0,-355.0,-229.0,-213.0,-151.0,-110.0,-118.0,-31.0,298.0,1
21.0,21.0,24.0,24.0,19.0,14.0,10.0,5.0,-7.0,-7.0,-8.0,10.0,0.0,-2.0,0.0,-12.0,1
10.0,8.0,4.0,1.0,2.0,5.0,8.0,7.0,9.0,1.0,-1.0,1.0,4.0,3.0,16.0,14.0,1
-9.0,-12.0,-12.0,-9.0,-9.0,-11.0,-3.0,-4.0,32.0,6.0,7.0,-7.0,3.0,0.0,-7.0,-35.0,1
-24.0,-24.0,-26.0,-27.0,-25.0,-27.0,-20.0,-19.0,65.0,32.0,19.0,16.0,-7.0,9.0,-5.0,-29.0,1
7.0,12.0,14.0,16.0,14.0,17.0,15.0,14.0,-85.0,-144.0,-213.0,-108.0,-83.0,-88.0,-90.0,39.0,1
-80.0,-80.0,-81.0,-79.0,-70.0,-71.0,-75.0,-46.0,196.0,86.0,62.0,-3.0,-45.0,-1.0,-4.0,-71.0,1
-18.0,-19.0,-20.0,-19.0,-20.0,-22.0,-16.0,-18.0,-182.0,-119.0,-97.0,-80.0,-58.0,-65.0,-45.0,23.0,1
46.0,42.0,46.0,48.0,43.0,36.0,28.0,27.0,176.0,539.0,641.0,451.0,493.0,561.0,633.0,337.0,1
21.0,18.0,14.0,17.0,22.0,27.0,32.0,37.0,18.0,27.0,31.0,27.0,18.0,14.0,18.0,13.0,1
-6.0,-5.0,-6.0,-5.0,-6.0,-8.0,-6.0,-8.0,-6.0,4.0,8.0,-10.0,5.0,0.0,-1.0,-14.0,1
14.0,14.0,13.0,13.0,10.0,10.0,12.0,12.0,71.0,62.0,65.0,41.0,41.0,47.0,34.0,-38.0,1
3.0,6.0,4.0,-2.0,0.0,3.0,9.0,10.0,-37.0,-71.0,-121.0,-75.0,-63.0,-88.0,-92.0,23.0,1
-28.0,-30.0,-33.0,-33.0,-28.0,-23.0,-18.0,-18.0,21.0,17.0,18.0,-4.0,-10.0,-4.0,-11.0,-18.0,1
17.0,15.0,10.0,4.0,8.0,18.0,22.0,22.0,-26.0,-43.0,-79.0,-24.0,-51.0,-69.0,-54.0,44.0,1
29.0,29.0,26.0,28.0,26.0,24.0,24.0,23.0,28.0,29.0,31.0,31.0,33.0,30.0,25.0,-10.0,1
-14.0,-14.0,-16.0,-19.0,-21.0,-18.0,-18.0,-17.0,-31.0,-19.0,-35.0,-1.0,-14.0,-29.0,-12.0,-4.0,1
4.0,5.0,3.0,0.0,0.0,2.0,-1.0,3.0,-110.0,-72.0,-69.0,-29.0,-24.0,-33.0,-3.0,88.0,1
-10.0,-10.0,-11.0,-9.0,-10.0,-11.0,-16.0,-15.0,-24.0,4.0,-3.0,-4.0,4.0,5.0,28.0,44.0,1
-78.0,-83.0,-84.0,-86.0,-82.0,-82.0,-94.0,-67.0,227.0,268.0,318.0,190.0,224.0,255.0,167.0,-312.0,1
-14.0,-16.0,-15.0,-15.0,-16.0,-18.0,-19.0,-16.0,-17.0,-8.0,-5.0,-3.0,-1.0,2.0,9.0,11.0,1
15.0,16.0,16.0,16.0,17.0,16.0,20.0,23.0,4.0,-1.0,-5.0,-7.0,-4.0,-5.0,-11.0,0.0,1
-7.0,-8.0,-9.0,-10.0,-2.0,0.0,8.0,6.0,-132.0,-88.0,-86.0,-56.0,-47.0,-45.0,-29.0,32.0,1
2.0,1.0,3.0,6.0,8.0,13.0,16.0,6.0,9.0,1.0,16.0,15.0,12.0,10.0,22.0,14.0,1
7.0,8.0,8.0,11.0,12.0,12.0,21.0,17.0,-32.0,67.0,75.0,48.0,79.0,92.0,138.0,146.0,1
44.0,42.0,39.0,43.0,46.0,39.0,25.0,46.0,350.0,204.0,183.0,102.0,53.0,76.0,64.0,-12.0,1
-5.0,-2.0,1.0,0.0,-4.0,-9.0,-6.0,-10.0,-35.0,-40.0,-64.0,-20.0,-35.0,-45.0,-47.0,27.0,1
29.0,31.0,34.0,31.0,24.0,20.0,17.0,15.0,61.0,63.0,59.0,39.0,38.0,41.0,42.0,31.0,1
-30.0,-37.0,-38.0,-42.0,-36.0,-28.0,-19.0,-21.0,9.0,-37.0,-39.0,-22.0,-27.0,-24.0,6.0,-39.0,1
-30.0,-31.0,-32.0,-31.0,-31.0,-31.0,-29.0,-26.0,-6.0,-20.0,-23.0,-21.0,-16.0,-21.0,-21.0,-35.0,1
27.0,33.0,45.0,39.0,25.0,16.0,13.0,3.0,-242.0,-283.0,-336.0,-207.0,-182.0,-236.0,-211.0,30.0,1
-5.0,-10.0,-9.0,-7.0,-8.0,-12.0,-7.0,-11.0,32.0,19.0,20.0,6.0,1.0,8.0,8.0,-16.0,1
13.0,18.0,20.0,19.0,18.0,12.0,18.0,12.0,-88.0,-116.0,-164.0,-88.0,-114.0,-144.0,-125.0,51.0,1
-48.0,-49.0,-50.0,-45.0,-43.0,-42.0,-45.0,-46.0,188.0,467.0,515.0,395.0,423.0,526.0,612.0,310.0,1
-12.0,-12.0,-9.0,-10.0,-7.0,-3.0,3.0,-3.0,-193.0,-239.0,-291.0,-188.0,-209.0,-252.0,-197.0,24.0,1
10.0,6.0,3.0,-2.0,5.0,10.0,13.0,16.0,-10.0,-24.0,-33.0,-12.0,-9.0,-14.0,-27.0,3.0,1
-12.0,-12.0,-12.0,-12.0,-12.0,-13.0,-16.0,-14.0,-32.0,-27.0,-26.0,-23.0,-19.0,-16.0,-16.0,-15.0,1
-51.0,-58.0,-63.0,-56.0,-45.0,-36.0,-41.0,-27.0,442.0,410.0,416.0,277.0,278.0,319.0,224.0,-266.0,1
-45.0,-52.0,-59.0,-59.0,-58.0,-54.0,-52.0,-50.0,-18.0,-14.0,-11.0,-16.0,-22.0,-23.0,-24.0,-25.0,1
3.0,2.0,0.0,4.0,6.0,7.0,3.0,4.0,9.0,-13.0,-26.0,-13.0,-3.0,2.0,9.0,2.0,1
2.0,2.0,1.0,2.0,2.0,4.0,12.0,10.0,135.0,212.0,232.0,137.0,160.0,168.0,167.0,-55.0,1
-7.0,-7.0,-6.0,-5.0,-3.0,0.0,2.0,5.0,-180.0,-101.0,-72.0,-55.0,-52.0,-58.0,-50.0,-13.0,1
43.0,48.0,47.0,44.0,43.0,44.0,48.0,44.0,-33.0,-59.0,-107.0,-55.0,-64.0,-74.0,-58.0,61.0,1
-75.0,-80.0,-87.0,-85.0,-75.0,-72.0,-73.0,-76.0,-69.0,-60.0,-65.0,-42.0,-41.0,-42.0,-35.0,-9.0,1
13.0,12.0,12.0,14.0,16.0,12.0,15.0,14.0,-416.0,-367.0,-355.0,-235.0,-214.0,-237.0,-192.0,190.0,1
-8.0,-8.0,-10.0,-10.0,-6.0,-3.0,-3.0,-5.0,14.0,42.0,62.0,37.0,35.0,40.0,34.0,-44.0,1
20.0,21.0,26.0,32.0,33.0,30.0,28.0,24.0,-76.0,-36.0,-12.0,-13.0,14.0,10.0,1.0,-1.0,1
-27.0,-27.0,-29.0,-30.0,-30.0,-27.0,-28.0,-25.0,-23.0,-17.0,-12.0,-16.0,-14.0,-14.0,-17.0,-18.0,1
1.0,-2.0,-1.0,0.0,0.0,-2.0,11.0,10.0,-253.0,-135.0,-128.0,-87.0,-48.0,-49.0,42.0,319.0,1
-4.0,-2.0,4.0,1.0,3.0,1.0,-1.0,1.0,6.0,8.0,2.0,-15.0,-7.0,0.0,11.0,8.0,1
25.0,26.0,27.0,28.0,21.0,19.0,20.0,28.0,225.0,169.0,153.0,106.0,92.0,83.0,31.0,-153.0,1
-41.0,-48.0,-55.0,-60.0,-49.0,-44.0,-49.0,-27.0,400.0,284.0,277.0,145.0,101.0,115.0,65.0,-64.0,1
2.0,1.0,0.0,-2.0,-5.0,-10.0,-4.0,-6.0,-430.0,-383.0,-373.0,-263.0,-252.0,-288.0,-231.0,189.0,1
-17.0,-17.0,-16.0,-17.0,-16.0,-14.0,-20.0,-17.0,-47.0,-29.0,-29.0,-11.0,-16.0,-24.0,-12.0,5.0,1
40.0,47.0,53.0,56.0,42.0,35.0,27.0,19.0,-320.0,-211.0,-142.0,-113.0,-100.0,-101.0,-85.0,3.0,1
-18.0,-19.0,-21.0,-27.0,-22.0,-21.0,-20.0,-21.0,-10.0,-19.0,-32.0,-12.0,-21.0,-27.0,-30.0,9.0,1
-22.0,-19.0,-19.0,-25.0,-23.0,-17.0,-20.0,-17.0,17.0,-197.0,-316.0,-197.0,-252.0,-299.0,-318.0,-39.0,1
0.0,-2.0,-7.0,-8.0,-9.0,-6.0,-11.0,-11.0,74.0,117.0,121.0,80.0,86.0,109.0,113.0,31.0,1
-24.0,-17.0,-18.0,-23.0,-23.0,-21.0,-17.0,-20.0,-104.0,-146.0,-197.0,-123.0,-134.0,-152.0,-138.0,39.0,1
-6.0,-6.0,-9.0,-11.0,-12.0,-14.0,-17.0,-14.0,27.0,23.0,25.0,16.0,8.0,4.0,1.0,-15.0,1
13.0,13.0,12.0,11.0,8.0,5.0,7.0,7.0,31.0,25.0,23.0,10.0,16.0,27.0,21.0,-11.0,1
-2.0,-2.0,0.0,1.0,4.0,10.0,13.0,5.0,-7.0,-20.0,-22.0,-17.0,-14.0,-14.0,2.0,0.0,1
-31.0,-33.0,-32.0,-33.0,-32.0,-30.0,-30.0,-28.0,-31.0,-33.0,-33.0,-30.0,-23.0,-28.0,-19.0,-2.0,1
-67.0,-62.0,-62.0,-54.0,-48.0,-44.0,-41.0,-44.0,-78.0,-94.0,-146.0,-86.0,-101.0,-118.0,-96.0,16.0,1
14.0,15.0,16.0,15.0,13.0,10.0,5.0,0.0,-233.0,-205.0,-192.0,-134.0,-118.0,-132.0,-120.0,31.0,1
6.0,6.0,5.0,-1.0,-2.0,-2.0,-1.0,1.0,16.0,71.0,76.0,59.0,59.0,64.0,90.0,78.0,1
12.0,5.0,-1.0,2.0,8.0,13.0,16.0,17.0,38.0,44.0,60.0,21.0,25.0,29.0,34.0,25.0,1
-12.0,-10.0,-10.0,-18.0,-14.0,-11.0,-6.0,-3.0,-1.0,-1.0,-3.0,-4.0,-3.0,-7.0,-6.0,-6.0,1
8.0,7.0,7.0,9.0,13.0,19.0,21.0,24.0,14.0,4.0,5.0,3.0,10.0,14.0,13.0,11.0,1
-85.0,-89.0,-84.0,-81.0,-70.0,-64.0,-62.0,-66.0,-43.0,-35.0,-31.0,-21.0,-20.0,-19.0,-35.0,-45.0,1
6.0,6.0,5.0,7.0,6.0,6.0,9.0,11.0,17.0,10.0,9.0,-3.0,-10.0,-11.0,-7.0,-15.0,1
-54.0,-52.0,-50.0,-49.0,-45.0,-42.0,-27.0,-23.0,-184.0,-227.0,-266.0,-167.0,-178.0,-200.0,-199.0,9.0,1
15.0,14.0,12.0,10.0,9.0,9.0,10.0,13.0,-26.0,-18.0,-19.0,0.0,-14.0,-18.0,0.0,28.0,1
-19.0,-16.0,-11.0,-11.0,-12.0,-15.0,-16.0,-17.0,-15.0,-14.0,-15.0,-21.0,-22.0,-21.0,-24.0,-9.0,1
-11.0,-10.0,-12.0,-13.0,-13.0,-14.0,-11.0,-11.0,-217.0,-140.0,-94.0,-67.0,-64.0,-74.0,-73.0,-78.0,1
24.0,29.0,30.0,28.0,26.0,21.0,22.0,19.0,-33.0,-56.0,-95.0,-43.0,-42.0,-52.0,-49.0,44.0,1
-19.0,-19.0,-18.0,-24.0,-24.0,-26.0,-19.0,-19.0,-90.0,-379.0,-411.0,-303.0,-308.0,-407.0,-562.0,-570.0,1
5.0,4.0,5.0,7.0,8.0,15.0,19.0,25.0,98.0,106.0,106.0,70.0,68.0,77.0,54.0,-35.0,1
-7.0,-7.0,-8.0,-4.0,-3.0,-5.0,-2.0,-4.0,-45.0,-31.0,-14.0,-30.0,-8.0,-12.0,-11.0,21.0,1
-17.0,-15.0,-9.0,-6.0,-9.0,-7.0,-7.0,-14.0,-207.0,-247.0,-279.0,-170.0,-168.0,-187.0,-184.0,19.0,1
-23.0,-20.0,-21.0,-28.0,-25.0,-24.0,-21.0,-17.0,-11.0,-13.0,-17.0,-13.0,-15.0,-16.0,-12.0,-15.0,1
-9.0,-7.0,-7.0,-6.0,-7.0,-7.0,-5.0,-5.0,4.0,17.0,9.0,-8.0,17.0,11.0,-29.0,-32.0,1
6.0,6.0,11.0,10.0,6.0,5.0,5.0,2.0,-31.0,-2.0,2.0,8.0,2.0,3.0,17.0,37.0,1
1.0,3.0,2.0,2.0,4.0,2.0,2.0,-1.0,-3.0,4.0,12.0,-6.0,13.0,11.0,5.0,-5.0,1
-12.0,-11.0,-11.0,-8.0,-6.0,-2.0,2.0,4.0,51.0,-64.0,-114.0,-86.0,-100.0,-118.0,-132.0,-6.0,1
-21.0,-18.0,-18.0,-16.0,-17.0,-8.0,-10.0,-7.0,-22.0,-11.0,-16.0,6.0,-6.0,-12.0,-5.0,-3.0,1
0.0,-1.0,-1.0,0.0,-1.0,1.0,3.0,5.0,19.0,12.0,10.0,5.0,10.0,11.0,6.0,-9.0,1
43.0,50.0,56.0,62.0,58.0,54.0,45.0,45.0,77.0,58.0,83.0,62.0,34.0,32.0,31.0,16.0,1
13.0,14.0,14.0,12.0,10.0,11.0,5.0,9.0,80.0,71.0,81.0,56.0,51.0,51.0,29.0,-47.0,1
-14.0,-16.0,-20.0,-16.0,-16.0,-12.0,-10.0,-6.0,-29.0,55.0,87.0,56.0,54.0,62.0,72.0,12.0,1
10.0,12.0,14.0,12.0,10.0,13.0,17.0,15.0,-291.0,-193.0,-153.0,-109.0,-77.0,-74.0,-59.0,73.0,1
33.0,35.0,35.0,34.0,28.0,36.0,32.0,25.0,-278.0,-46.0,74.0,45.0,70.0,70.0,84.0,-47.0,1
-1.0,-2.0,-3.0,-4.0,-1.0,0.0,4.0,7.0,82.0,74.0,85.0,49.0,45.0,50.0,38.0,-46.0,1
36.0,41.0,48.0,47.0,43.0,42.0,43.0,40.0,-72.0,-99.0,-154.0,-92.0,-89.0,-103.0,-87.0,52.0,1
2.0,2.0,1.0,0.0,3.0,5.0,3.0,5.0,-41.0,-19.0,-22.0,-1.0,-10.0,-16.0,-6.0,16.0,1
-31.0,-32.0,-32.0,-31.0,-33.0,-35.0,-33.0,-38.0,-14.0,-10.0,-13.0,-6.0,0.0,-3.0,-12.0,-18.0,1
13.0,12.0,17.0,16.0,4.0,-7.0,5.0,-6.0,-281.0,-315.0,-344.0,-213.0,-172.0,-246.0,-222.0,14.0,1
9.0,10.0,10.0,7.0,6.0,10.0,11.0,12.0,18.0,82.0,76.0,87.0,54.0,78.0,131.0,136.0,1
47.0,47.0,45.0,43.0,39.0,40.0,37.0,36.0,104.0,96.0,112.0,66.0,63.0,68.0,57.0,-36.0,1
-26.0,-26.0,-27.0,-29.0,-28.0,-32.0,-21.0,-26.0,-4.0,-11.0,-12.0,-7.0,-33.0,-18.0,-13.0,-15.0,1
-25.0,-27.0,-27.0,-31.0,-34.0,-35.0,-37.0,-39.0,-17.0,-21.0,-17.0,-12.0,-20.0,-25.0,-30.0,-19.0,1
3.0,4.0,1.0,-3.0,-6.0,-6.0,-7.0,-3.0,-54.0,-34.0,-35.0,5.0,-7.0,-9.0,-2.0,46.0,1
28.0,27.0,29.0,25.0,28.0,29.0,34.0,27.0,-14.0,19.0,17.0,22.0,17.0,16.0,30.0,53.0,1
8.0,8.0,8.0,10.0,8.0,7.0,7.0,4.0,10.0,7.0,5.0,-4.0,-8.0,-9.0,6.0,7.0,1
2.0,4.0,4.0,15.0,20.0,14.0,1.0,27.0,223.0,132.0,123.0,86.0,59.0,88.0,55.0,-25.0,1
-40.0,-43.0,-43.0,-32.0,-27.0,-14.0,-5.0,-7.0,-311.0,-311.0,-291.0,-212.0,-197.0,-208.0,-190.0,16.0,1
16.0,17.0,17.0,11.0,9.0,6.0,11.0,10.0,1.0,-5.0,-17.0,4.0,-5.0,-9.0,-4.0,29.0,1
-37.0,-39.0,-40.0,-33.0,-34.0,-31.0,-35.0,-31.0,351.0,477.0,538.0,347.0,324.0,382.0,374.0,-45.0,1
-26.0,-24.0,-25.0,-33.0,-32.0,-31.0,-29.0,-24.0,-6.0,-8.0,-22.0,0.0,-23.0,-16.0,-22.0,-7.0,1
-12.0,-8.0,-8.0,-9.0,-10.0,-11.0,-11.0,-15.0,-241.0,-280.0,-324.0,-211.0,-188.0,-223.0,-217.0,47.0,1
-6.0,-4.0,-2.0,-5.0,-7.0,-12.0,-10.0,-12.0,-5.0,-13.0,-21.0,-7.0,-21.0,-27.0,-25.0,11.0,1
-27.0,-27.0,-24.0,-24.0,-26.0,-24.0,-25.0,-24.0,-14.0,-11.0,-17.0,-2.0,-22.0,-21.0,-25.0,-11.0,1
