0,1,2,3,4,5,6,7,8,9,10,11,12,13,14,15,16
-62.0,-56.0,-58.0,-53.0,-55.0,-62.0,-66.0,-69.0,-51.0,-51.0,43.0,-19.0,-30.0,-38.0,-33.0,-37.0,1
116.0,93.0,90.0,82.0,85.0,79.0,83.0,83.0,123.0,244.0,114.0,115.0,124.0,122.0,126.0,131.0,1
13.0,27.0,21.0,8.0,1.0,-1.0,-4.0,2.0,8.0,21.0,43.0,21.0,18.0,14.0,14.0,16.0,1
-16.0,-17.0,-16.0,-15.0,-16.0,-14.0,-15.0,-16.0,-12.0,-13.0,-8.0,-12.0,-15.0,-15.0,-14.0,-13.0,1
10.0,16.0,17.0,14.0,13.0,10.0,12.0,10.0,14.0,22.0,21.0,18.0,12.0,11.0,12.0,14.0,1
-89.0,-84.0,-64.0,-67.0,-68.0,-72.0,-70.0,-81.0,-99.0,-22.0,-88.0,-82.0,-73.0,-79.0,-83.0,-85.0,1
-73.0,-73.0,-73.0,-62.0,-63.0,-78.0,-97.0,-90.0,-48.0,-12.0,50.0,9.0,-15.0,-28.0,-17.0,-7.0,1
18.0,30.0,20.0,14.0,10.0,11.0,7.0,4.0,3.0,-4.0,3.0,0.0,-6.0,-8.0,-7.0,-5.0,1
-19.0,-8.0,-10.0,-7.0,-5.0,0.0,0.0,-3.0,-7.0,-45.0,-13.0,-6.0,-14.0,-13.0,-12.0,-11.0,1
11.0,15.0,16.0,14.0,16.0,19.0,18.0,17.0,18.0,21.0,21.0,16.0,11.0,9.0,11.0,15.0,1
5.0,6.0,6.0,4.0,4.0,5.0,4.0,6.0,13.0,17.0,14.0,9.0,5.0,5.0,4.0,6.0,1
3.0,5.0,7.0,6.0,8.0,8.0,8.0,12.0,7.0,6.0,10.0,10.0,9.0,9.0,5.0,2.0,1
-51.0,-41.0,-45.0,-40.0,-41.0,-42.0,-44.0,-42.0,-50.0,-103.0,-72.0,-55.0,-56.0,-56.0,-58.0,-60.0,1
4.0,1.0,-6.0,-4.0,-3.0,0.0,0.0,-1.0,2.0,-9.0,-3.0,1.0,-3.0,-5.0,-2.0,0.0,1
-6.0,6.0,1.0,2.0,-1.0,-2.0,-6.0,-8.0,-7.0,-47.0,-15.0,-7.0,-11.0,-12.0,-15.0,-17.0,1
-56.0,-63.0,-66.0,-61.0,-66.0,-58.0,-54.0,-50.0,-53.0,-103.0,-92.0,-70.0,-74.0,-70.0,-66.0,-64.0,1
62.0,67.0,65.0,62.0,59.0,59.0,62.0,61.0,82.0,67.0,84.0,74.0,74.0,74.0,76.0,78.0,1
-35.0,-31.0,-32.0,-31.0,-34.0,-34.0,-35.0,-31.0,-40.0,-95.0,-61.0,-45.0,-43.0,-43.0,-44.0,-46.0,1
-64.0,-42.0,-52.0,-37.0,-31.0,-29.0,-37.0,-40.0,-56.0,-145.0,-97.0,-53.0,-60.0,-58.0,-60.0,-62.0,1
-17.0,-18.0,-17.0,-13.0,-15.0,-16.0,-18.0,-15.0,-12.0,-11.0,-12.0,-7.0,-4.0,-5.0,-7.0,-7.0,1
-9.0,-11.0,-12.0,-10.0,-8.0,-4.0,-4.0,-4.0,-5.0,-3.0,0.0,-2.0,-6.0,-8.0,-6.0,-4.0,1
3.0,12.0,6.0,2.0,-4.0,-3.0,-4.0,-5.0,7.0,-7.0,3.0,1.0,-3.0,-6.0,-1.0,2.0,1
5.0,4.0,2.0,8.0,8.0,10.0,12.0,12.0,0.0,3.0,-1.0,4.0,5.0,6.0,4.0,3.0,1
-12.0,-12.0,-14.0,-15.0,-15.0,-16.0,-16.0,-17.0,-4.0,3.0,3.0,-4.0,-7.0,-7.0,-8.0,-6.0,1
-22.0,-22.0,-26.0,-27.0,-28.0,-27.0,-24.0,-25.0,-21.0,-17.0,-14.0,-17.0,-18.0,-13.0,-11.0,-10.0,1
-124.0,-152.0,-131.0,-123.0,-114.0,-111.0,-102.0,-115.0,-175.0,-172.0,-210.0,-171.0,-155.0,-151.0,-148.0,-147.0,1
-3.0,-6.0,-5.0,-6.0,-5.0,-2.0,-2.0,-2.0,-6.0,-4.0,-5.0,-5.0,-4.0,-4.0,-4.0,-5.0,1
-12.0,-16.0,-13.0,-12.0,-11.0,-9.0,-11.0,-14.0,-8.0,-10.0,-4.0,-5.0,-3.0,-5.0,-6.0,-6.0,1
-51.0,-42.0,-49.0,-33.0,-36.0,-22.0,-25.0,-25.0,-39.0,-47.0,-139.0,-55.0,-33.0,-31.0,-33.0,-31.0,1
-31.0,-22.0,-27.0,-13.0,-37.0,-16.0,-27.0,-26.0,-20.0,-42.0,-105.0,-57.0,-52.0,-46.0,-51.0,-49.0,1
-30.0,-28.0,-30.0,-30.0,-29.0,-33.0,-31.0,-27.0,-19.0,-16.0,-13.0,-12.0,-9.0,-11.0,-10.0,-10.0,1
7.0,6.0,5.0,5.0,7.0,10.0,9.0,9.0,2.0,-5.0,7.0,3.0,-7.0,-6.0,-2.0,1.0,1
-57.0,-59.0,-56.0,-44.0,-48.0,-39.0,-39.0,-42.0,-90.0,-157.0,-137.0,-95.0,-89.0,-87.0,-90.0,-95.0,1
-6.0,-2.0,-4.0,-4.0,-7.0,-5.0,-5.0,-3.0,-6.0,-19.0,-7.0,-8.0,-12.0,-10.0,-12.0,-13.0,1
1.0,3.0,3.0,1.0,2.0,1.0,7.0,12.0,7.0,9.0,11.0,3.0,0.0,3.0,6.0,7.0,1
1.0,0.0,3.0,6.0,10.0,11.0,11.0,10.0,3.0,5.0,8.0,6.0,8.0,9.0,9.0,10.0,1
21.0,22.0,24.0,18.0,12.0,2.0,-12.0,-2.0,-2.0,-11.0,84.0,25.0,14.0,2.0,10.0,14.0,1
0.0,0.0,0.0,-1.0,0.0,1.0,1.0,0.0,0.0,4.0,3.0,1.0,-3.0,-1.0,-1.0,-1.0,1
14.0,11.0,10.0,9.0,12.0,11.0,13.0,16.0,12.0,3.0,13.0,10.0,10.0,10.0,10.0,13.0,1
-107.0,-94.0,-101.0,-80.0,-82.0,-59.0,-59.0,-59.0,-192.0,-395.0,-377.0,-278.0,-216.0,-210.0,-228.0,-239.0,1
-3.0,1.0,-1.0,2.0,4.0,7.0,7.0,4.0,-4.0,-18.0,-8.0,-7.0,-7.0,-8.0,-5.0,-7.0,1
-12.0,-17.0,-16.0,-14.0,-16.0,-16.0,-16.0,-14.0,-13.0,-10.0,-9.0,-9.0,-7.0,-5.0,-4.0,-5.0,1
-28.0,-15.0,-17.0,-15.0,-16.0,-19.0,-24.0,-23.0,-15.0,-34.0,-14.0,-10.0,-9.0,-8.0,-16.0,-18.0,1
-2.0,-19.0,-31.0,-17.0,-12.0,-13.0,-12.0,-12.0,-23.0,-29.0,-21.0,-18.0,-15.0,-15.0,-16.0,-19.0,1
-32.0,-39.0,-27.0,-14.0,-5.0,-5.0,11.0,18.0,-3.0,12.0,-64.0,-17.0,-17.0,-15.0,-19.0,-16.0,1
18.0,12.0,7.0,18.0,19.0,0.0,-11.0,-13.0,89.0,204.0,324.0,232.0,179.0,171.0,186.0,193.0,1
-6.0,-4.0,-2.0,0.0,0.0,-1.0,-2.0,-1.0,2.0,6.0,-1.0,3.0,2.0,4.0,3.0,2.0,1
21.0,5.0,14.0,0.0,3.0,-5.0,6.0,8.0,-19.0,65.0,-24.0,-8.0,13.0,11.0,10.0,9.0,1
20.0,26.0,34.0,40.0,53.0,54.0,57.0,50.0,35.0,116.0,42.0,48.0,55.0,48.0,47.0,49.0,1
-41.0,-48.0,-64.0,-78.0,-85.0,-94.0,-88.0,-81.0,-64.0,40.0,21.0,-15.0,-41.0,-49.0,-52.0,-51.0,1
-49.0,-44.0,-46.0,-38.0,-36.0,-31.0,-33.0,-34.0,-48.0,-87.0,-55.0,-39.0,-39.0,-40.0,-41.0,-43.0,1
-73.0,-102.0,-81.0,-64.0,-51.0,-61.0,-52.0,-52.0,-161.0,-103.0,-178.0,-137.0,-97.0,-98.0,-99.0,-104.0,1
-104.0,-127.0,-110.0,-108.0,-107.0,-105.0,-95.0,-101.0,-155.0,-147.0,-186.0,-151.0,-140.0,-144.0,-140.0,-137.0,1
-10.0,-12.0,-11.0,-14.0,-15.0,-15.0,-16.0,-13.0,-9.0,-3.0,-9.0,-8.0,-5.0,-7.0,-9.0,-10.0,1
-83.0,-70.0,-82.0,-76.0,-82.0,-49.0,-42.0,-46.0,-201.0,-466.0,-482.0,-365.0,-286.0,-267.0,-293.0,-307.0,1
5.0,5.0,5.0,4.0,5.0,2.0,3.0,3.0,-3.0,0.0,0.0,1.0,2.0,2.0,0.0,0.0,1
4.0,4.0,4.0,1.0,-1.0,-4.0,-5.0,-3.0,2.0,5.0,5.0,4.0,6.0,4.0,2.0,2.0,1
-108.0,-111.0,-107.0,-96.0,-76.0,-79.0,-82.0,-85.0,-119.0,-160.0,-178.0,-125.0,-113.0,-109.0,-111.0,-112.0,1
15.0,21.0,19.0,19.0,17.0,18.0,17.0,16.0,15.0,17.0,20.0,12.0,8.0,6.0,12.0,13.0,1
-58.0,-63.0,-62.0,-52.0,-43.0,-41.0,-40.0,-49.0,-96.0,-68.0,-111.0,-73.0,-65.0,-67.0,-69.0,-69.0,1
4.0,8.0,6.0,3.0,4.0,2.0,3.0,4.0,5.0,8.0,5.0,7.0,9.0,7.0,5.0,4.0,1
24.0,22.0,22.0,23.0,21.0,21.0,23.0,21.0,17.0,21.0,23.0,17.0,18.0,17.0,17.0,16.0,1
0.0,7.0,7.0,9.0,14.0,16.0,14.0,10.0,2.0,-17.0,1.0,7.0,3.0,2.0,0.0,-2.0,1
8.0,7.0,4.0,3.0,6.0,4.0,0.0,0.0,0.0,-1.0,-3.0,5.0,6.0,2.0,1.0,-1.0,1
14.0,-3.0,-1.0,10.0,15.0,22.0,34.0,25.0,9.0,-2.0,58.0,21.0,11.0,1.0,11.0,11.0,1
299.0,301.0,303.0,311.0,307.0,309.0,299.0,288.0,332.0,327.0,374.0,337.0,336.0,326.0,329.0,328.0,1
-4.0,-3.0,-8.0,-8.0,-9.0,-8.0,-10.0,-9.0,-2.0,-6.0,1.0,1.0,-2.0,-3.0,-1.0,4.0,1
-122.0,-113.0,-109.0,-69.0,-60.0,-53.0,-51.0,-52.0,-138.0,-287.0,-222.0,-161.0,-125.0,-130.0,-133.0,-140.0,1
-142.0,-132.0,-138.0,-126.0,-134.0,-108.0,-103.0,-106.0,-160.0,-229.0,-276.0,-217.0,-196.0,-187.0,-192.0,-193.0,1
-26.0,-33.0,-37.0,-28.0,-23.0,-28.0,-24.0,-31.0,-15.0,-6.0,61.0,8.0,-11.0,-24.0,-18.0,-15.0,1
-12.0,-10.0,-12.0,-9.0,-11.0,-12.0,-16.0,-13.0,-10.0,-43.0,-17.0,-11.0,-5.0,-5.0,-11.0,-13.0,1
-7.0,-1.0,0.0,-1.0,-4.0,-5.0,-8.0,-9.0,7.0,13.0,17.0,13.0,10.0,7.0,3.0,1.0,1
9.0,6.0,6.0,5.0,8.0,9.0,10.0,10.0,5.0,6.0,2.0,2.0,5.0,6.0,5.0,4.0,1
5.0,13.0,3.0,6.0,1.0,5.0,4.0,4.0,17.0,-35.0,-7.0,9.0,2.0,6.0,6.0,8.0,1
-99.0,-94.0,-97.0,-89.0,-87.0,-99.0,-103.0,-107.0,-94.0,-77.0,-93.0,-85.0,-90.0,-94.0,-95.0,-93.0,1
-7.0,-8.0,-10.0,-9.0,-10.0,-8.0,-9.0,-8.0,-1.0,4.0,1.0,1.0,0.0,2.0,2.0,1.0,1
7.0,9.0,10.0,11.0,16.0,19.0,20.0,21.0,16.0,18.0,17.0,16.0,20.0,23.0,21.0,21.0,1
-90.0,-90.0,-88.0,-80.0,-73.0,-72.0,-72.0,-73.0,-111.0,-164.0,-151.0,-118.0,-115.0,-114.0,-111.0,-111.0,1
-83.0,-82.0,-82.0,-61.0,-77.0,-58.0,-55.0,-65.0,-81.0,-118.0,-139.0,-103.0,-95.0,-92.0,-105.0,-107.0,1
-95.0,-105.0,-103.0,-101.0,-99.0,-97.0,-100.0,-103.0,-117.0,-171.0,-165.0,-132.0,-128.0,-127.0,-121.0,-118.0,1
-30.0,-9.0,-14.0,-12.0,-9.0,-14.0,-18.0,-22.0,-19.0,-73.0,-33.0,-24.0,-27.0,-27.0,-32.0,-35.0,1
10.0,17.0,17.0,13.0,14.0,13.0,12.0,11.0,5.0,6.0,3.0,5.0,3.0,2.0,2.0,2.0,1
-26.0,0.0,-10.0,-3.0,2.0,7.0,1.0,-6.0,-20.0,-99.0,-48.0,-22.0,-39.0,-36.0,-35.0,-37.0,1
11.0,13.0,13.0,17.0,18.0,22.0,19.0,19.0,9.0,5.0,3.0,9.0,9.0,10.0,12.0,13.0,1
103.0,89.0,88.0,88.0,94.0,90.0,94.0,94.0,116.0,239.0,109.0,115.0,131.0,131.0,128.0,128.0,1
-6.0,-2.0,-3.0,-4.0,-1.0,-2.0,-2.0,1.0,-2.0,1.0,4.0,-5.0,-6.0,-6.0,-4.0,-4.0,1
-6.0,-4.0,-4.0,-8.0,-7.0,-8.0,-8.0,-4.0,-8.0,-8.0,-6.0,-8.0,-2.0,-3.0,-5.0,-7.0,1
-8.0,-7.0,-6.0,-8.0,-9.0,-7.0,-5.0,-3.0,2.0,5.0,5.0,1.0,2.0,4.0,4.0,4.0,1
-33.0,-38.0,-40.0,-36.0,-35.0,-31.0,-34.0,-32.0,-33.0,-73.0,-47.0,-37.0,-34.0,-28.0,-26.0,-27.0,1
40.0,38.0,38.0,39.0,39.0,40.0,41.0,41.0,27.0,32.0,29.0,29.0,29.0,31.0,31.0,31.0,1
2.0,4.0,3.0,1.0,3.0,3.0,5.0,5.0,-3.0,0.0,1.0,-1.0,0.0,2.0,2.0,1.0,1
-69.0,-70.0,-68.0,-57.0,-66.0,-58.0,-59.0,-67.0,-88.0,-164.0,-136.0,-104.0,-100.0,-100.0,-97.0,-95.0,1
-86.0,-70.0,-76.0,-58.0,-56.0,-54.0,-61.0,-67.0,-85.0,-174.0,-144.0,-92.0,-97.0,-97.0,-97.0,-98.0,1
-115.0,-108.0,-108.0,-86.0,-88.0,-91.0,-92.0,-94.0,-153.0,-214.0,-227.0,-156.0,-145.0,-143.0,-144.0,-146.0,1
-6.0,-10.0,-11.0,-10.0,-13.0,-11.0,-9.0,-9.0,-6.0,-7.0,-7.0,-4.0,-1.0,-3.0,-2.0,-3.0,1
-11.0,-17.0,-16.0,-16.0,-14.0,-13.0,-13.0,-12.0,-5.0,0.0,0.0,-5.0,-8.0,-7.0,-5.0,-2.0,1
-21.0,-17.0,-16.0,-17.0,-14.0,-13.0,-16.0,-16.0,-18.0,-32.0,-16.0,-6.0,-6.0,-8.0,-14.0,-15.0,1
-1.0,2.0,2.0,-11.0,-16.0,-10.0,-13.0,-8.0,-11.0,-120.0,-122.0,-92.0,-78.0,-71.0,-83.0,-82.0,1
-35.0,-28.0,-31.0,-24.0,-31.0,-27.0,-29.0,-32.0,-41.0,-111.0,-65.0,-48.0,-50.0,-52.0,-54.0,-55.0,1
4.0,10.0,8.0,12.0,13.0,14.0,12.0,8.0,4.0,-25.0,0.0,6.0,7.0,10.0,8.0,5.0,1
-37.0,-45.0,-45.0,-48.0,-26.0,-41.0,-32.0,-25.0,-39.0,93.0,-39.0,-18.0,-8.0,-11.0,-10.0,-11.0,1
-4.0,-1.0,0.0,-15.0,-16.0,-12.0,-15.0,-7.0,-16.0,-94.0,-88.0,-70.0,-60.0,-52.0,-59.0,-59.0,1
14.0,16.0,16.0,14.0,18.0,17.0,19.0,20.0,10.0,10.0,11.0,12.0,10.0,14.0,14.0,13.0,1
-107.0,-106.0,-107.0,-91.0,-81.0,-74.0,-56.0,-63.0,-96.0,-81.0,-103.0,-91.0,-88.0,-75.0,-72.0,-78.0,1
42.0,43.0,46.0,50.0,53.0,56.0,56.0,54.0,56.0,43.0,51.0,46.0,52.0,52.0,53.0,57.0,1
-20.0,-21.0,-22.0,-24.0,-25.0,-24.0,-22.0,-19.0,-15.0,-11.0,-16.0,-16.0,-16.0,-16.0,-16.0,-15.0,1
-36.0,-35.0,-32.0,-30.0,-12.0,-21.0,-19.0,-22.0,-28.0,122.0,-16.0,-2.0,6.0,10.0,8.0,10.0,1
34.0,36.0,40.0,43.0,45.0,43.0,40.0,42.0,40.0,7.0,26.0,36.0,24.0,29.0,27.0,29.0,1
8.0,8.0,9.0,7.0,9.0,10.0,12.0,13.0,9.0,9.0,9.0,5.0,0.0,-2.0,0.0,3.0,1
13.0,13.0,12.0,9.0,7.0,4.0,3.0,5.0,6.0,5.0,7.0,3.0,3.0,4.0,3.0,1.0,1
-5.0,1.0,-3.0,-7.0,-12.0,-11.0,-11.0,-7.0,-16.0,-37.0,-16.0,-17.0,-25.0,-20.0,-19.0,-20.0,1
-22.0,-23.0,-26.0,-27.0,-29.0,-31.0,-33.0,-33.0,-23.0,-26.0,-26.0,-19.0,-18.0,-20.0,-23.0,-24.0,1
18.0,18.0,16.0,17.0,19.0,20.0,21.0,22.0,11.0,6.0,12.0,12.0,12.0,13.0,16.0,16.0,1
9.0,12.0,14.0,15.0,17.0,17.0,19.0,19.0,8.0,10.0,10.0,9.0,13.0,14.0,13.0,10.0,1
7.0,17.0,20.0,21.0,20.0,17.0,14.0,14.0,-3.0,-32.0,9.0,0.0,4.0,1.0,0.0,-3.0,1
-94.0,-88.0,-90.0,-71.0,-73.0,-67.0,-65.0,-64.0,-91.0,-107.0,-113.0,-88.0,-87.0,-85.0,-85.0,-83.0,1
-14.0,-2.0,-7.0,-2.0,-1.0,3.0,0.0,-2.0,-1.0,-48.0,-20.0,-5.0,-6.0,-5.0,-3.0,-5.0,1
0.0,-1.0,-1.0,-1.0,-1.0,-1.0,-1.0,-3.0,-10.0,-8.0,-10.0,-11.0,-10.0,-11.0,-11.0,-11.0,1
-12.0,-13.0,-15.0,-17.0,-16.0,-14.0,-13.0,-10.0,-10.0,-14.0,-8.0,-11.0,-14.0,-10.0,-11.0,-11.0,1
-77.0,-77.0,-70.0,-71.0,-74.0,-71.0,-65.0,-72.0,-116.0,-95.0,-144.0,-109.0,-99.0,-101.0,-105.0,-107.0,1
-3.0,4.0,4.0,-1.0,-6.0,-10.0,-10.0,-8.0,0.0,9.0,5.0,4.0,6.0,3.0,-2.0,-2.0,1
14.0,13.0,14.0,14.0,14.0,13.0,13.0,14.0,10.0,9.0,6.0,3.0,4.0,4.0,4.0,5.0,1
-158.0,-152.0,-156.0,-137.0,-146.0,-131.0,-129.0,-131.0,-185.0,-260.0,-264.0,-220.0,-202.0,-198.0,-203.0,-206.0,1
5.0,4.0,4.0,5.0,3.0,4.0,4.0,5.0,7.0,5.0,10.0,6.0,6.0,8.0,8.0,8.0,1
-57.0,-39.0,-36.0,-23.0,-14.0,-18.0,-14.0,-15.0,-40.0,-102.0,-99.0,-55.0,-59.0,-61.0,-52.0,-47.0,1
-36.0,-26.0,-33.0,-41.0,-56.0,-25.0,-24.0,-20.0,-120.0,-250.0,-332.0,-229.0,-178.0,-169.0,-184.0,-190.0,1
-29.0,-28.0,-31.0,-26.0,-27.0,-24.0,-25.0,-26.0,-25.0,-54.0,-33.0,-27.0,-28.0,-27.0,-29.0,-27.0,1
-14.0,-11.0,-14.0,-11.0,-10.0,-7.0,-3.0,5.0,-10.0,-12.0,-3.0,-2.0,-4.0,-4.0,-4.0,-3.0,1
458.0,447.0,445.0,441.0,437.0,432.0,430.0,440.0,503.0,604.0,552.0,486.0,468.0,470.0,477.0,482.0,1
15.0,12.0,11.0,11.0,15.0,15.0,14.0,17.0,16.0,8.0,14.0,13.0,16.0,14.0,13.0,14.0,1
-13.0,-13.0,-13.0,-13.0,-14.0,-14.0,-13.0,-15.0,-12.0,-12.0,-7.0,-9.0,-11.0,-14.0,-19.0,-23.0,1
8.0,9.0,8.0,8.0,8.0,10.0,13.0,13.0,4.0,6.0,2.0,2.0,2.0,2.0,5.0,7.0,1
21.0,18.0,19.0,15.0,13.0,12.0,13.0,15.0,7.0,12.0,11.0,10.0,8.0,9.0,5.0,5.0,1
19.0,20.0,20.0,21.0,17.0,18.0,19.0,20.0,13.0,16.0,14.0,16.0,13.0,13.0,10.0,9.0,1
-31.0,-27.0,-26.0,-21.0,-18.0,-15.0,-20.0,-22.0,-30.0,-61.0,-37.0,-35.0,-37.0,-35.0,-32.0,-32.0,1
6.0,1.0,1.0,0.0,0.0,1.0,3.0,5.0,10.0,10.0,8.0,8.0,7.0,8.0,10.0,13.0,1
-25.0,-23.0,-30.0,-25.0,-29.0,-25.0,-26.0,-26.0,-32.0,-99.0,-57.0,-41.0,-41.0,-40.0,-44.0,-45.0,1
24.0,29.0,27.0,22.0,10.0,34.0,32.0,33.0,31.0,7.0,-74.0,-14.0,0.0,12.0,8.0,4.0,1
14.0,7.0,6.0,7.0,10.0,11.0,11.0,12.0,16.0,17.0,16.0,15.0,16.0,17.0,17.0,17.0,1
3.0,6.0,7.0,7.0,8.0,10.0,11.0,11.0,-7.0,-21.0,-11.0,-11.0,-10.0,-9.0,-12.0,-11.0,1
-17.0,-34.0,-38.0,-39.0,-39.0,-50.0,-51.0,-54.0,-18.0,41.0,147.0,35.0,-6.0,-35.0,-29.0,-14.0,1
-7.0,-5.0,-10.0,-9.0,-13.0,-10.0,-14.0,-20.0,-29.0,-73.0,-37.0,-27.0,-37.0,-42.0,-39.0,-39.0,1
278.0,262.0,260.0,246.0,249.0,247.0,247.0,248.0,343.0,477.0,319.0,299.0,283.0,281.0,295.0,310.0,1
-5.0,-4.0,-5.0,-1.0,-2.0,1.0,1.0,0.0,-5.0,-5.0,-1.0,-2.0,0.0,-1.0,-2.0,-3.0,1
-23.0,-28.0,-30.0,-28.0,-27.0,-23.0,-22.0,-16.0,-23.0,-21.0,-24.0,-23.0,-20.0,-21.0,-20.0,-18.0,1
-51.0,-45.0,-45.0,-36.0,-41.0,-35.0,-28.0,-30.0,-69.0,-121.0,-92.0,-67.0,-64.0,-60.0,-65.0,-74.0,1
-62.0,-45.0,-53.0,-39.0,-37.0,-38.0,-43.0,-44.0,-66.0,-157.0,-127.0,-76.0,-85.0,-84.0,-81.0,-79.0,1
-3.0,0.0,-4.0,-1.0,0.0,5.0,4.0,7.0,0.0,-18.0,-5.0,-4.0,-3.0,0.0,4.0,9.0,1
9.0,8.0,8.0,11.0,14.0,14.0,13.0,9.0,6.0,10.0,9.0,7.0,5.0,4.0,5.0,3.0,1
-135.0,-139.0,-135.0,-134.0,-133.0,-139.0,-138.0,-132.0,-189.0,-231.0,-190.0,-167.0,-176.0,-174.0,-184.0,-191.0,1
-5.0,-4.0,-7.0,-7.0,-2.0,-3.0,-1.0,0.0,-12.0,-8.0,-9.0,-15.0,-10.0,-9.0,-11.0,-11.0,1
-30.0,-47.0,-55.0,-57.0,-56.0,-60.0,-53.0,-66.0,-25.0,40.0,149.0,36.0,-4.0,-16.0,4.0,8.0,1
-8.0,-6.0,-8.0,-12.0,-19.0,-21.0,-22.0,-23.0,4.0,10.0,3.0,1.0,-4.0,-5.0,-3.0,-1.0,1
-18.0,-24.0,-29.0,-28.0,-29.0,-27.0,-28.0,-27.0,-30.0,-22.0,-24.0,-24.0,-24.0,-24.0,-25.0,-27.0,1
-43.0,-59.0,-61.0,-61.0,-57.0,-59.0,-58.0,-49.0,-99.0,-140.0,-116.0,-99.0,-111.0,-105.0,-108.0,-109.0,1
-10.0,-11.0,-9.0,-9.0,-11.0,-11.0,-13.0,-10.0,-9.0,-7.0,-6.0,-4.0,-5.0,-4.0,-5.0,-4.0,1
-54.0,-31.0,-43.0,-36.0,-35.0,-32.0,-41.0,-46.0,-27.0,-105.0,-55.0,-31.0,-43.0,-44.0,-46.0,-45.0,1
7.0,5.0,5.0,6.0,6.0,5.0,4.0,4.0,0.0,1.0,3.0,2.0,4.0,4.0,2.0,3.0,1
-29.0,-25.0,-26.0,-24.0,-26.0,-24.0,-28.0,-28.0,-24.0,-25.0,-24.0,-18.0,-20.0,-21.0,-16.0,-14.0,1
-45.0,-33.0,-44.0,-40.0,-36.0,-37.0,-41.0,-47.0,-22.0,-77.0,-31.0,-18.0,-28.0,-28.0,-30.0,-29.0,1
29.0,31.0,31.0,29.0,27.0,23.0,25.0,28.0,16.0,0.0,8.0,14.0,23.0,21.0,15.0,13.0,1
-124.0,-122.0,-122.0,-110.0,-114.0,-118.0,-125.0,-118.0,-146.0,-186.0,-144.0,-137.0,-146.0,-166.0,-173.0,-166.0,1
-41.0,-58.0,-56.0,-16.0,-11.0,-24.0,-21.0,-30.0,36.0,47.0,93.0,106.0,91.0,93.0,102.0,109.0,1
9.0,9.0,8.0,4.0,6.0,7.0,8.0,7.0,6.0,14.0,13.0,8.0,6.0,5.0,6.0,5.0,1
-18.0,-22.0,-22.0,-20.0,-22.0,-21.0,-21.0,-19.0,-24.0,-22.0,-18.0,-22.0,-17.0,-18.0,-22.0,-24.0,1
100.0,86.0,90.0,91.0,91.0,90.0,94.0,90.0,124.0,234.0,123.0,126.0,133.0,133.0,133.0,139.0,1
37.0,34.0,38.0,46.0,49.0,48.0,46.0,47.0,23.0,-15.0,5.0,19.0,10.0,19.0,15.0,12.0,1
-20.0,-22.0,-24.0,-23.0,-19.0,-16.0,-16.0,-16.0,-9.0,-14.0,-13.0,-17.0,-14.0,-12.0,-12.0,-8.0,1
-18.0,-17.0,-22.0,-21.0,-23.0,-24.0,-20.0,-21.0,-19.0,-14.0,-11.0,-14.0,-13.0,-10.0,-8.0,-7.0,1
-150.0,-150.0,-141.0,-118.0,-117.0,-123.0,-120.0,-125.0,-206.0,-202.0,-276.0,-207.0,-179.0,-175.0,-175.0,-176.0,1
-78.0,-55.0,-58.0,-47.0,-38.0,-36.0,-35.0,-35.0,-62.0,-126.0,-118.0,-77.0,-76.0,-68.0,-59.0,-56.0,1
-9.0,-8.0,-11.0,-9.0,-8.0,-7.0,-7.0,-6.0,-6.0,-11.0,-5.0,-8.0,-12.0,-12.0,-11.0,-10.0,1
-3.0,-2.0,-3.0,0.0,0.0,2.0,1.0,1.0,3.0,11.0,9.0,6.0,5.0,6.0,7.0,7.0,1
-153.0,-143.0,-150.0,-138.0,-146.0,-123.0,-119.0,-120.0,-168.0,-239.0,-284.0,-224.0,-205.0,-196.0,-201.0,-203.0,1
-24.0,-26.0,-32.0,-25.0,-24.0,-19.0,-16.0,-10.0,-18.0,-45.0,-28.0,-21.0,-18.0,-13.0,-11.0,-7.0,1
8.0,11.0,11.0,12.0,9.0,8.0,5.0,6.0,11.0,14.0,18.0,12.0,10.0,9.0,8.0,10.0,1
24.0,27.0,29.0,30.0,27.0,29.0,25.0,27.0,42.0,33.0,48.0,42.0,46.0,45.0,41.0,40.0,1
1.0,-6.0,-11.0,-5.0,2.0,9.0,21.0,18.0,11.0,-5.0,78.0,22.0,17.0,21.0,27.0,25.0,1
-60.0,-60.0,-63.0,-62.0,-61.0,-66.0,-69.0,-70.0,-68.0,-23.0,25.0,-23.0,-43.0,-51.0,-49.0,-47.0,1
-30.0,-35.0,-35.0,-9.0,-5.0,-8.0,-4.0,-8.0,-14.0,54.0,140.0,111.0,94.0,91.0,92.0,96.0,1
-99.0,-97.0,-95.0,-84.0,-81.0,-76.0,-73.0,-78.0,-113.0,-160.0,-146.0,-111.0,-106.0,-107.0,-109.0,-109.0,1
-17.0,-16.0,-16.0,-18.0,-17.0,-19.0,-23.0,-23.0,-9.0,-5.0,-1.0,-7.0,-9.0,-9.0,-8.0,-8.0,1
-132.0,-135.0,-124.0,-115.0,-116.0,-111.0,-113.0,-120.0,-152.0,-185.0,-193.0,-150.0,-143.0,-143.0,-143.0,-140.0,1
-56.0,-58.0,-53.0,-53.0,-56.0,-53.0,-47.0,-53.0,-92.0,-65.0,-119.0,-87.0,-73.0,-75.0,-72.0,-72.0,1
45.0,39.0,34.0,37.0,35.0,31.0,27.0,14.0,76.0,136.0,248.0,147.0,126.0,105.0,113.0,122.0,1
19.0,21.0,21.0,22.0,23.0,23.0,21.0,21.0,18.0,24.0,23.0,19.0,21.0,20.0,18.0,17.0,1
-96.0,-90.0,-94.0,-82.0,-77.0,-84.0,-90.0,-93.0,-82.0,-56.0,-58.0,-65.0,-66.0,-59.0,-63.0,-66.0,1
-145.0,-138.0,-132.0,-94.0,-93.0,-80.0,-79.0,-81.0,-156.0,-312.0,-256.0,-191.0,-152.0,-153.0,-158.0,-165.0,1
-17.0,-16.0,-18.0,-17.0,-16.0,-19.0,-17.0,-16.0,-27.0,-23.0,-25.0,-19.0,-15.0,-16.0,-21.0,-24.0,1
-106.0,-111.0,-104.0,-94.0,-90.0,-93.0,-86.0,-84.0,-110.0,-114.0,-173.0,-125.0,-115.0,-111.0,-104.0,-98.0,1
-8.0,0.0,-1.0,7.0,6.0,10.0,15.0,12.0,19.0,51.0,-52.0,-1.0,-4.0,3.0,1.0,2.0,1
-39.0,-39.0,-38.0,-33.0,-33.0,-30.0,-38.0,-43.0,-32.0,-72.0,-42.0,-33.0,-35.0,-33.0,-37.0,-35.0,1
15.0,18.0,17.0,15.0,17.0,14.0,15.0,17.0,10.0,14.0,9.0,11.0,14.0,14.0,14.0,12.0,1
30.0,27.0,23.0,19.0,16.0,12.0,12.0,16.0,23.0,29.0,17.0,21.0,23.0,21.0,20.0,19.0,1
-6.0,-3.0,-8.0,-8.0,-8.0,-8.0,-7.0,-6.0,-5.0,2.0,5.0,0.0,1.0,-1.0,-2.0,-2.0,1
0.0,1.0,0.0,0.0,0.0,0.0,3.0,5.0,7.0,10.0,12.0,5.0,6.0,7.0,8.0,9.0,1
8.0,9.0,9.0,9.0,10.0,9.0,8.0,7.0,4.0,11.0,7.0,5.0,3.0,3.0,6.0,7.0,1
-46.0,-37.0,-42.0,-35.0,-32.0,-33.0,-36.0,-39.0,-31.0,-86.0,-47.0,-37.0,-43.0,-46.0,-39.0,-34.0,1
-35.0,-31.0,-34.0,-33.0,-38.0,-34.0,-34.0,-29.0,-19.0,-51.0,-24.0,-13.0,-20.0,-22.0,-25.0,-25.0,1
-58.0,-64.0,-60.0,-58.0,-56.0,-52.0,-43.0,-48.0,-98.0,-66.0,-124.0,-93.0,-77.0,-78.0,-79.0,-80.0,1
-110.0,-107.0,-108.0,-97.0,-104.0,-112.0,-116.0,-122.0,-127.0,-167.0,-121.0,-115.0,-118.0,-131.0,-138.0,-132.0,1
-9.0,-10.0,-10.0,-6.0,-3.0,-1.0,-1.0,-1.0,-13.0,-12.0,-11.0,-12.0,-12.0,-12.0,-11.0,-13.0,1
-50.0,-53.0,-49.0,-46.0,-41.0,-42.0,-39.0,-48.0,-62.0,-24.0,-85.0,-63.0,-52.0,-50.0,-52.0,-52.0,1
6.0,2.0,3.0,11.0,11.0,6.0,0.0,-7.0,-1.0,-5.0,55.0,19.0,8.0,-6.0,-7.0,-7.0,1
-10.0,-8.0,-4.0,-3.0,0.0,5.0,10.0,14.0,-31.0,-65.0,0.0,-18.0,-13.0,-15.0,-14.0,-18.0,1
-100.0,-92.0,-91.0,-67.0,-63.0,-66.0,-77.0,-81.0,-101.0,-183.0,-164.0,-103.0,-106.0,-105.0,-107.0,-107.0,1
-12.0,-6.0,-8.0,-11.0,-15.0,-16.0,-16.0,-13.0,-11.0,-7.0,-7.0,-7.0,-9.0,-9.0,-7.0,-7.0,1
-15.0,-15.0,-14.0,-16.0,-15.0,-16.0,-17.0,-16.0,-14.0,-14.0,-8.0,-13.0,-15.0,-14.0,-13.0,-13.0,1
-25.0,-23.0,-24.0,-23.0,-24.0,-24.0,-25.0,-23.0,-12.0,-12.0,-8.0,-16.0,-15.0,-14.0,-13.0,-14.0,1
7.0,9.0,5.0,-3.0,-3.0,-5.0,-6.0,-6.0,-20.0,-27.0,-15.0,-13.0,-10.0,-8.0,-9.0,-8.0,1
216.0,209.0,205.0,217.0,223.0,227.0,229.0,227.0,234.0,228.0,243.0,229.0,235.0,241.0,244.0,240.0,1
-4.0,2.0,11.0,15.0,23.0,15.0,10.0,16.0,32.0,43.0,-59.0,3.0,6.0,14.0,13.0,15.0,1
-51.0,-53.0,-49.0,-49.0,-41.0,-22.0,14.0,20.0,-70.0,-84.0,-13.0,-56.0,-65.0,-86.0,-85.0,-67.0,1
-31.0,-27.0,-26.0,-17.0,-18.0,-14.0,-13.0,-12.0,4.0,38.0,-62.0,-13.0,-14.0,-7.0,-8.0,-5.0,1
25.0,13.0,12.0,14.0,13.0,18.0,17.0,21.0,-1.0,-31.0,-13.0,-8.0,-4.0,-3.0,-5.0,-5.0,1
-9.0,-10.0,-10.0,-6.0,-8.0,-9.0,-7.0,-4.0,-33.0,-59.0,-41.0,-35.0,-24.0,-24.0,-31.0,-36.0,1
148.0,136.0,139.0,136.0,151.0,143.0,148.0,147.0,198.0,320.0,219.0,190.0,191.0,188.0,195.0,204.0,1
40.0,28.0,23.0,31.0,30.0,30.0,31.0,19.0,67.0,123.0,237.0,141.0,121.0,104.0,114.0,119.0,1
-6.0,-7.0,-5.0,-5.0,-2.0,-2.0,-4.0,-3.0,-1.0,-10.0,0.0,7.0,4.0,2.0,1.0,0.0,1
16.0,21.0,22.0,8.0,3.0,8.0,6.0,10.0,-2.0,-88.0,-85.0,-61.0,-53.0,-44.0,-54.0,-54.0,1
19.0,19.0,17.0,17.0,17.0,20.0,19.0,19.0,10.0,10.0,6.0,6.0,5.0,4.0,6.0,7.0,1
-16.0,-12.0,-16.0,-14.0,-12.0,-10.0,-12.0,-8.0,-7.0,-32.0,-10.0,-5.0,-5.0,-2.0,-6.0,-6.0,1
-107.0,-94.0,-98.0,-80.0,-84.0,-89.0,-91.0,-91.0,-126.0,-200.0,-196.0,-130.0,-134.0,-130.0,-132.0,-133.0,1
-6.0,-2.0,-6.0,-16.0,-20.0,-4.0,-2.0,-2.0,7.0,-27.0,-90.0,-36.0,-24.0,-18.0,-27.0,-24.0,1
-55.0,-37.0,-43.0,-26.0,-30.0,-27.0,-21.0,-20.0,-45.0,-49.0,-95.0,-57.0,-56.0,-53.0,-62.0,-62.0,1
19.0,15.0,12.0,12.0,12.0,10.0,9.0,10.0,10.0,14.0,17.0,9.0,7.0,9.0,12.0,12.0,1
205.0,198.0,202.0,198.0,203.0,202.0,204.0,201.0,259.0,403.0,248.0,242.0,244.0,246.0,248.0,251.0,1
-95.0,-91.0,-101.0,-108.0,-122.0,-94.0,-96.0,-93.0,-201.0,-449.0,-479.0,-375.0,-309.0,-293.0,-322.0,-330.0,1
-62.0,-70.0,-75.0,-73.0,-70.0,-74.0,-74.0,-75.0,-93.0,-161.0,-124.0,-96.0,-95.0,-94.0,-93.0,-92.0,1
-23.0,-24.0,-22.0,-23.0,-21.0,-21.0,-22.0,-22.0,-16.0,-20.0,-18.0,-21.0,-20.0,-20.0,-17.0,-14.0,1
-14.0,-10.0,-10.0,-10.0,-13.0,-17.0,-19.0,-18.0,-2.0,-6.0,0.0,0.0,5.0,3.0,0.0,1.0,1
-27.0,-15.0,-24.0,-31.0,-39.0,-20.0,-23.0,-20.0,-74.0,-182.0,-277.0,-197.0,-161.0,-151.0,-167.0,-174.0,1
11.0,-14.0,-23.0,-37.0,-21.0,-36.0,-28.0,-23.0,-7.0,125.0,-15.0,-4.0,5.0,3.0,4.0,15.0,1
-15.0,-17.0,-17.0,-20.0,-21.0,-23.0,-22.0,-18.0,-13.0,-14.0,-12.0,-12.0,-19.0,-17.0,-13.0,-11.0,1
-8.0,-38.0,-21.0,-20.0,-17.0,-21.0,-13.0,-18.0,-68.0,-30.0,-86.0,-58.0,-42.0,-46.0,-45.0,-43.0,1
-80.0,-89.0,-82.0,-80.0,-77.0,-78.0,-73.0,-75.0,-108.0,-77.0,-133.0,-100.0,-85.0,-85.0,-83.0,-81.0,1
299.0,306.0,301.0,306.0,298.0,301.0,293.0,281.0,330.0,336.0,396.0,333.0,326.0,314.0,317.0,322.0,1
6.0,4.0,5.0,7.0,9.0,12.0,15.0,14.0,3.0,1.0,0.0,0.0,-1.0,1.0,6.0,6.0,1
-14.0,-15.0,-14.0,-12.0,-9.0,-11.0,-12.0,-8.0,-13.0,-12.0,-11.0,-11.0,-6.0,-3.0,-7.0,-8.0,1
0.0,0.0,-1.0,-2.0,0.0,1.0,1.0,5.0,0.0,-1.0,-4.0,3.0,0.0,-3.0,-2.0,-2.0,1
-14.0,-7.0,-12.0,-12.0,-12.0,-9.0,-13.0,-11.0,-11.0,-18.0,-10.0,-9.0,-7.0,-8.0,-13.0,-14.0,1
21.0,25.0,24.0,23.0,23.0,25.0,25.0,24.0,14.0,19.0,19.0,18.0,17.0,16.0,17.0,15.0,1
-19.0,-18.0,-20.0,-16.0,-16.0,-13.0,-12.0,-9.0,-17.0,-42.0,-21.0,-18.0,-15.0,-14.0,-14.0,-14.0,1
-72.0,-70.0,-72.0,-66.0,-72.0,-75.0,-74.0,-78.0,-58.0,-47.0,32.0,-26.0,-39.0,-44.0,-41.0,-37.0,1
4.0,3.0,4.0,3.0,3.0,3.0,3.0,6.0,6.0,9.0,6.0,9.0,9.0,7.0,7.0,8.0,1
-1.0,1.0,-1.0,-1.0,-2.0,-1.0,0.0,-1.0,-2.0,-7.0,-2.0,-3.0,-5.0,-5.0,-8.0,-9.0,1
10.0,18.0,16.0,15.0,10.0,11.0,15.0,15.0,11.0,15.0,19.0,10.0,8.0,7.0,8.0,11.0,1
-75.0,-80.0,-76.0,-54.0,-48.0,-53.0,-50.0,-46.0,-39.0,-38.0,-59.0,-31.0,-32.0,-28.0,-26.0,-22.0,1
-28.0,-33.0,-32.0,-30.0,-30.0,-27.0,-27.0,-26.0,-25.0,-24.0,-24.0,-24.0,-23.0,-24.0,-25.0,-25.0,1
-6.0,-6.0,-5.0,-4.0,-4.0,-6.0,-5.0,-7.0,-5.0,-7.0,-5.0,-5.0,-5.0,-5.0,-3.0,-5.0,1
-2.0,-4.0,-2.0,-3.0,-4.0,-5.0,-7.0,-7.0,-1.0,3.0,5.0,0.0,2.0,0.0,1.0,1.0,1
-15.0,-10.0,-2.0,2.0,6.0,-6.0,-13.0,-7.0,18.0,32.0,-72.0,-11.0,-10.0,-9.0,-17.0,-11.0,1
-17.0,-15.0,-16.0,-14.0,-13.0,-11.0,-12.0,-12.0,-14.0,-9.0,-5.0,-9.0,-12.0,-12.0,-12.0,-12.0,1
-25.0,-20.0,-22.0,-15.0,-14.0,-11.0,-16.0,-17.0,-13.0,-50.0,-22.0,-13.0,-17.0,-17.0,-17.0,-19.0,1
104.0,94.0,92.0,88.0,109.0,97.0,97.0,92.0,142.0,244.0,153.0,135.0,140.0,132.0,140.0,146.0,1
-7.0,-9.0,-10.0,-10.0,-13.0,-14.0,-12.0,-11.0,-4.0,-5.0,-4.0,-5.0,-6.0,-7.0,-7.0,-6.0,1
-40.0,-42.0,-47.0,-40.0,-43.0,-39.0,-38.0,-33.0,-47.0,-103.0,-74.0,-56.0,-61.0,-57.0,-55.0,-50.0,1
7.0,13.0,10.0,9.0,10.0,12.0,12.0,12.0,2.0,2.0,8.0,1.0,3.0,1.0,3.0,3.0,1
-37.0,-28.0,-33.0,-29.0,-25.0,-28.0,-30.0,-33.0,-29.0,-86.0,-47.0,-35.0,-38.0,-39.0,-38.0,-35.0,1
8.0,-6.0,-2.0,8.0,22.0,18.0,21.0,12.0,16.0,81.0,9.0,17.0,37.0,38.0,32.0,33.0,1
-8.0,-7.0,-8.0,-8.0,-7.0,-10.0,-14.0,-17.0,-3.0,0.0,5.0,-2.0,-3.0,-1.0,-1.0,1.0,1
-2.0,12.0,1.0,0.0,-1.0,1.0,-1.0,-4.0,0.0,-31.0,-10.0,-6.0,-16.0,-7.0,-7.0,-7.0,1
-10.0,-13.0,-14.0,-12.0,-14.0,-12.0,-12.0,-11.0,-7.0,-5.0,-8.0,-7.0,-7.0,-10.0,-7.0,-7.0,1
-31.0,-30.0,-31.0,-31.0,-32.0,-31.0,-30.0,-30.0,-22.0,-27.0,-22.0,-24.0,-25.0,-24.0,-22.0,-20.0,1
-297.0,-305.0,-297.0,-288.0,-287.0,-283.0,-282.0,-280.0,-342.0,-390.0,-349.0,-326.0,-340.0,-332.0,-332.0,-335.0,1
-58.0,-60.0,-59.0,-48.0,-43.0,-38.0,-36.0,-45.0,-97.0,-113.0,-132.0,-95.0,-88.0,-85.0,-86.0,-88.0,1
18.0,12.0,10.0,22.0,27.0,15.0,11.0,1.0,63.0,168.0,292.0,214.0,169.0,159.0,171.0,184.0,1
-1.0,-2.0,0.0,1.0,2.0,3.0,1.0,3.0,1.0,7.0,-2.0,3.0,7.0,6.0,6.0,5.0,1
167.0,143.0,144.0,132.0,148.0,138.0,147.0,157.0,185.0,389.0,194.0,189.0,196.0,204.0,201.0,200.0,1
-1.0,4.0,2.0,3.0,2.0,3.0,0.0,2.0,5.0,-2.0,3.0,5.0,6.0,7.0,5.0,5.0,1
14.0,15.0,13.0,8.0,-2.0,21.0,22.0,24.0,28.0,8.0,-78.0,-18.0,-9.0,3.0,-1.0,1.0,1
1.0,2.0,-1.0,-2.0,-1.0,-1.0,1.0,1.0,2.0,4.0,5.0,3.0,2.0,0.0,3.0,4.0,1
-34.0,-38.0,-37.0,-36.0,-39.0,-34.0,-34.0,-35.0,-29.0,-30.0,-27.0,-28.0,-31.0,-30.0,-29.0,-27.0,1
448.0,446.0,448.0,441.0,436.0,426.0,422.0,429.0,504.0,597.0,555.0,490.0,474.0,469.0,473.0,476.0,1
22.0,-6.0,6.0,2.0,10.0,-2.0,7.0,6.0,-19.0,58.0,-32.0,-13.0,15.0,14.0,7.0,3.0,1
-6.0,-4.0,-5.0,-9.0,-13.0,-13.0,-7.0,-3.0,-5.0,1.0,1.0,-1.0,-4.0,-5.0,-6.0,-10.0,1
12.0,11.0,12.0,13.0,14.0,14.0,15.0,18.0,6.0,3.0,5.0,5.0,6.0,7.0,6.0,3.0,1
-11.0,-8.0,-8.0,-6.0,-4.0,-1.0,-4.0,-4.0,-8.0,-14.0,-5.0,-3.0,-2.0,-3.0,-5.0,-6.0,1
51.0,54.0,54.0,52.0,49.0,50.0,48.0,48.0,78.0,55.0,76.0,73.0,71.0,69.0,64.0,65.0,1
-5.0,-4.0,-4.0,-4.0,-3.0,-6.0,-8.0,-9.0,-13.0,-19.0,-18.0,-13.0,-8.0,-9.0,-10.0,-12.0,1
-38.0,-37.0,-39.0,-34.0,-33.0,-40.0,-45.0,-45.0,-69.0,-56.0,37.0,-31.0,-43.0,-63.0,-70.0,-71.0,1
-116.0,-109.0,-117.0,-101.0,-101.0,-106.0,-109.0,-111.0,-125.0,-214.0,-191.0,-136.0,-140.0,-136.0,-135.0,-134.0,1
-45.0,-47.0,-40.0,-36.0,-33.0,-33.0,-31.0,-38.0,-70.0,-30.0,-88.0,-63.0,-50.0,-52.0,-56.0,-56.0,1
23.0,25.0,24.0,24.0,21.0,21.0,20.0,20.0,20.0,20.0,25.0,17.0,16.0,17.0,18.0,17.0,1
-24.0,-15.0,-22.0,-21.0,-20.0,-11.0,-9.0,-10.0,-22.0,-60.0,-36.0,-35.0,-47.0,-47.0,-35.0,-28.0,1
6.0,8.0,8.0,8.0,7.0,9.0,10.0,10.0,11.0,13.0,6.0,8.0,8.0,10.0,11.0,13.0,1
-78.0,-70.0,-68.0,-59.0,-59.0,-51.0,-55.0,-63.0,-74.0,-129.0,-98.0,-77.0,-78.0,-80.0,-78.0,-77.0,1
-16.0,-15.0,-16.0,-16.0,-21.0,-20.0,-16.0,-14.0,-12.0,-15.0,-9.0,-14.0,-14.0,-12.0,-13.0,-13.0,1
-2.0,-2.0,-2.0,-2.0,-1.0,0.0,-1.0,-3.0,-6.0,-8.0,-12.0,-8.0,-12.0,-8.0,-12.0,-13.0,1
-119.0,-108.0,-115.0,-112.0,-122.0,-94.0,-88.0,-91.0,-132.0,-202.0,-281.0,-208.0,-186.0,-173.0,-180.0,-183.0,1
-67.0,-55.0,-64.0,-71.0,-85.0,-71.0,-71.0,-70.0,-101.0,-173.0,-256.0,-183.0,-166.0,-152.0,-163.0,-168.0,1
-55.0,-43.0,-42.0,-30.0,-32.0,-23.0,-24.0,-31.0,-44.0,-111.0,-65.0,-49.0,-50.0,-51.0,-50.0,-52.0,1
-14.0,-14.0,-14.0,-14.0,-13.0,-12.0,-14.0,-15.0,-12.0,-2.0,-12.0,-7.0,-5.0,-5.0,-7.0,-7.0,1
-64.0,-66.0,-70.0,-66.0,-57.0,-64.0,-65.0,-69.0,-63.0,-129.0,-89.0,-67.0,-66.0,-63.0,-58.0,-54.0,1
0.0,-1.0,-1.0,-2.0,0.0,-3.0,-5.0,-3.0,1.0,8.0,9.0,5.0,7.0,4.0,4.0,2.0,1
-4.0,-1.0,-2.0,2.0,-2.0,-2.0,-2.0,-1.0,-1.0,-5.0,-5.0,1.0,2.0,5.0,0.0,-1.0,1
-35.0,-32.0,-35.0,-30.0,-29.0,-22.0,-22.0,-20.0,-43.0,-91.0,-59.0,-50.0,-55.0,-56.0,-53.0,-53.0,1
8.0,9.0,6.0,5.0,8.0,6.0,5.0,5.0,1.0,0.0,3.0,5.0,6.0,4.0,3.0,3.0,1
-24.0,-13.0,-21.0,-23.0,-26.0,-21.0,-22.0,-20.0,-15.0,-37.0,-22.0,-22.0,-28.0,-25.0,-23.0,-21.0,1
9.0,-1.0,-4.0,-8.0,-10.0,-21.0,-28.0,-31.0,-10.0,40.0,147.0,47.0,19.0,-1.0,0.0,6.0,1
5.0,8.0,3.0,2.0,0.0,-3.0,0.0,1.0,0.0,4.0,6.0,-2.0,-6.0,-5.0,-4.0,-3.0,1
-159.0,-148.0,-154.0,-140.0,-151.0,-130.0,-130.0,-129.0,-170.0,-240.0,-281.0,-223.0,-204.0,-195.0,-202.0,-205.0,1
14.0,14.0,14.0,12.0,11.0,12.0,14.0,15.0,11.0,12.0,19.0,8.0,2.0,4.0,4.0,5.0,1
-66.0,-58.0,-60.0,-55.0,-54.0,-53.0,-56.0,-55.0,-63.0,-109.0,-75.0,-60.0,-64.0,-64.0,-66.0,-65.0,1
-1.0,-8.0,-10.0,-11.0,-9.0,-10.0,-6.0,-1.0,-13.0,-12.0,-12.0,-14.0,-11.0,-13.0,-16.0,-17.0,1
28.0,23.0,23.0,23.0,21.0,24.0,23.0,20.0,20.0,20.0,18.0,14.0,8.0,7.0,10.0,12.0,1
8.0,13.0,15.0,14.0,12.0,8.0,7.0,7.0,5.0,5.0,6.0,5.0,5.0,4.0,2.0,0.0,1
-43.0,-49.0,-49.0,-42.0,-30.0,-28.0,-26.0,-33.0,-71.0,-27.0,-86.0,-56.0,-48.0,-48.0,-47.0,-46.0,1
8.0,8.0,5.0,6.0,8.0,8.0,11.0,14.0,5.0,-4.0,-1.0,-4.0,-5.0,-3.0,3.0,9.0,1
259.0,229.0,240.0,180.0,195.0,203.0,206.0,209.0,332.0,557.0,432.0,314.0,304.0,303.0,307.0,315.0,1
-14.0,-15.0,-20.0,-14.0,-7.0,-5.0,6.0,0.0,-6.0,-16.0,80.0,20.0,9.0,6.0,12.0,12.0,1
-12.0,-6.0,-12.0,-11.0,-16.0,-14.0,-14.0,-13.0,-11.0,-33.0,-16.0,-13.0,-21.0,-15.0,-18.0,-20.0,1
-29.0,-30.0,-31.0,-30.0,-28.0,-25.0,-25.0,-23.0,-12.0,-6.0,-18.0,-16.0,-15.0,-12.0,-9.0,-9.0,1
10.0,13.0,14.0,10.0,10.0,11.0,11.0,12.0,19.0,21.0,19.0,10.0,9.0,8.0,9.0,10.0,1
-20.0,-19.0,-19.0,-17.0,-18.0,-15.0,-15.0,-18.0,-20.0,-12.0,-16.0,-13.0,-10.0,-13.0,-15.0,-16.0,1
-24.0,-16.0,-15.0,-12.0,-14.0,-13.0,-15.0,-14.0,-3.0,0.0,2.0,-3.0,-3.0,-4.0,-5.0,-3.0,1
-67.0,-62.0,-65.0,-58.0,-53.0,-57.0,-58.0,-61.0,-65.0,-130.0,-89.0,-69.0,-70.0,-70.0,-72.0,-72.0,1
97.0,80.0,91.0,89.0,91.0,87.0,93.0,91.0,84.0,187.0,88.0,90.0,104.0,103.0,102.0,103.0,1
-4.0,-4.0,-4.0,-4.0,-4.0,-3.0,-3.0,-4.0,-1.0,2.0,0.0,1.0,2.0,0.0,-1.0,0.0,1
-27.0,-28.0,-29.0,-24.0,-24.0,-25.0,-29.0,-30.0,-29.0,-27.0,-27.0,-24.0,-23.0,-23.0,-26.0,-29.0,1
-29.0,-31.0,-30.0,-28.0,-30.0,-29.0,-29.0,-27.0,-28.0,-22.0,-20.0,-22.0,-26.0,-24.0,-27.0,-29.0,1
27.0,34.0,32.0,25.0,20.0,8.0,-1.0,4.0,33.0,80.0,116.0,63.0,38.0,20.0,17.0,22.0,1
3.0,-1.0,-3.0,-7.0,-8.0,-8.0,-6.0,-2.0,-4.0,-8.0,-1.0,-2.0,-2.0,-2.0,-7.0,-7.0,1
3.0,1.0,1.0,1.0,2.0,3.0,3.0,7.0,-1.0,1.0,-1.0,-1.0,0.0,0.0,0.0,-1.0,1
-148.0,-156.0,-149.0,-133.0,-121.0,-117.0,-117.0,-128.0,-162.0,-161.0,-214.0,-157.0,-137.0,-136.0,-142.0,-148.0,1
-11.0,-7.0,-13.0,-11.0,-4.0,-3.0,-5.0,-5.0,-10.0,-22.0,-11.0,-4.0,1.0,2.0,0.0,-3.0,1
-78.0,-64.0,-60.0,-54.0,-47.0,-58.0,-64.0,-66.0,-60.0,-120.0,-118.0,-71.0,-75.0,-71.0,-70.0,-70.0,1
-33.0,-47.0,-52.0,-51.0,-47.0,-48.0,-43.0,-44.0,-76.0,-41.0,-100.0,-70.0,-61.0,-64.0,-63.0,-58.0,1
23.0,29.0,27.0,19.0,10.0,34.0,35.0,31.0,29.0,3.0,-73.0,-16.0,-4.0,6.0,-4.0,-5.0,1
8.0,8.0,7.0,7.0,9.0,7.0,8.0,9.0,1.0,3.0,3.0,2.0,0.0,-1.0,-2.0,-3.0,1
16.0,29.0,27.0,25.0,23.0,19.0,18.0,17.0,19.0,12.0,25.0,21.0,16.0,15.0,11.0,12.0,1
-12.0,-8.0,-10.0,-10.0,-7.0,-9.0,-11.0,-12.0,-15.0,-15.0,-17.0,-9.0,-6.0,-6.0,-8.0,-10.0,1
-1.0,6.0,8.0,6.0,4.0,1.0,1.0,-1.0,10.0,9.0,14.0,15.0,10.0,12.0,10.0,9.0,1
-91.0,-96.0,-107.0,-99.0,-89.0,-93.0,-88.0,-92.0,-78.0,-54.0,31.0,-31.0,-52.0,-58.0,-54.0,-53.0,1
58.0,61.0,64.0,63.0,63.0,60.0,57.0,60.0,55.0,23.0,44.0,52.0,39.0,40.0,36.0,36.0,1
-34.0,-33.0,-37.0,-31.0,-34.0,-29.0,-33.0,-33.0,-22.0,-63.0,-31.0,-27.0,-28.0,-27.0,-23.0,-17.0,1
-83.0,-76.0,-78.0,-67.0,-76.0,-69.0,-74.0,-81.0,-91.0,-156.0,-105.0,-84.0,-80.0,-78.0,-82.0,-87.0,1
-104.0,-88.0,-95.0,-85.0,-83.0,-93.0,-95.0,-98.0,-99.0,-109.0,-105.0,-89.0,-91.0,-93.0,-93.0,-93.0,1
-26.0,-28.0,-28.0,-32.0,-37.0,-39.0,-43.0,-42.0,-22.0,-20.0,-18.0,-23.0,-22.0,-23.0,-26.0,-24.0,1
-39.0,-35.0,-37.0,-24.0,-31.0,-35.0,-35.0,-38.0,-42.0,-52.0,14.0,-5.0,-14.0,-21.0,-22.0,-19.0,1
-13.0,-13.0,-15.0,-12.0,-12.0,-12.0,-16.0,-18.0,-3.0,-10.0,2.0,1.0,3.0,5.0,1.0,0.0,1
-25.0,-24.0,-25.0,-28.0,-28.0,-27.0,-30.0,-31.0,-19.0,-18.0,-15.0,-23.0,-25.0,-24.0,-25.0,-23.0,1
-7.0,-11.0,-9.0,-7.0,-6.0,-5.0,-6.0,-5.0,-2.0,0.0,1.0,-2.0,0.0,-1.0,-1.0,-1.0,1
-23.0,-12.0,-18.0,-16.0,-16.0,-13.0,-16.0,-17.0,-12.0,-35.0,-13.0,-13.0,-20.0,-25.0,-25.0,-24.0,1
3.0,4.0,5.0,4.0,6.0,5.0,4.0,5.0,11.0,13.0,12.0,12.0,12.0,17.0,17.0,17.0,1
-19.0,-16.0,-17.0,-17.0,-18.0,-14.0,-15.0,-17.0,-16.0,-9.0,-14.0,-12.0,-10.0,-12.0,-12.0,-13.0,1
15.0,18.0,19.0,19.0,21.0,22.0,21.0,21.0,19.0,20.0,19.0,15.0,13.0,13.0,13.0,15.0,1
-24.0,-19.0,-25.0,-21.0,-23.0,-20.0,-24.0,-22.0,-12.0,-47.0,-20.0,-14.0,-13.0,-14.0,-18.0,-20.0,1
19.0,19.0,17.0,18.0,17.0,17.0,16.0,15.0,1.0,-9.0,-7.0,-4.0,-2.0,-1.0,0.0,0.0,1
-58.0,-51.0,-56.0,-37.0,-37.0,-17.0,-15.0,-15.0,-41.0,-50.0,-139.0,-56.0,-33.0,-26.0,-24.0,-23.0,1
364.0,336.0,331.0,328.0,336.0,339.0,341.0,345.0,409.0,547.0,440.0,401.0,395.0,401.0,405.0,407.0,1
-46.0,-43.0,-46.0,-45.0,-50.0,-46.0,-46.0,-43.0,-37.0,-79.0,-61.0,-40.0,-42.0,-42.0,-44.0,-45.0,1
-57.0,-56.0,-57.0,-50.0,-49.0,-46.0,-48.0,-46.0,-48.0,-78.0,-51.0,-43.0,-40.0,-43.0,-43.0,-41.0,1
-102.0,-120.0,-111.0,-104.0,-101.0,-95.0,-93.0,-99.0,-140.0,-137.0,-181.0,-140.0,-125.0,-125.0,-123.0,-123.0,1
0.0,-3.0,-3.0,-3.0,-3.0,-1.0,2.0,5.0,-12.0,-9.0,-8.0,-8.0,-7.0,-5.0,-4.0,-7.0,1
-103.0,-93.0,-105.0,-103.0,-115.0,-83.0,-84.0,-80.0,-213.0,-476.0,-500.0,-387.0,-314.0,-299.0,-325.0,-336.0,1
-98.0,-86.0,-94.0,-83.0,-81.0,-91.0,-91.0,-91.0,-97.0,-107.0,-103.0,-87.0,-89.0,-89.0,-87.0,-88.0,1
-4.0,-8.0,-6.0,-8.0,-8.0,-6.0,-7.0,-6.0,-1.0,7.0,8.0,3.0,3.0,3.0,3.0,3.0,1
-25.0,-4.0,-15.0,-14.0,-15.0,-13.0,-12.0,-7.0,-9.0,-71.0,-30.0,-15.0,-29.0,-32.0,-29.0,-27.0,1
-108.0,-112.0,-109.0,-89.0,-89.0,-92.0,-92.0,-96.0,-178.0,-212.0,-252.0,-177.0,-158.0,-157.0,-159.0,-160.0,1
34.0,42.0,41.0,40.0,39.0,37.0,35.0,34.0,34.0,42.0,41.0,32.0,29.0,27.0,27.0,27.0,1
33.0,35.0,35.0,33.0,32.0,28.0,28.0,27.0,21.0,23.0,23.0,25.0,24.0,22.0,23.0,21.0,1
-88.0,-86.0,-91.0,-72.0,-62.0,-69.0,-59.0,-62.0,-41.0,-5.0,-3.0,-7.0,-23.0,-24.0,-18.0,-12.0,1
-80.0,-86.0,-85.0,-63.0,-72.0,-52.0,-40.0,-47.0,-74.0,-125.0,-128.0,-99.0,-92.0,-89.0,-89.0,-86.0,1
-31.0,-27.0,-29.0,-25.0,-25.0,-22.0,-21.0,-20.0,-31.0,-62.0,-38.0,-30.0,-31.0,-29.0,-31.0,-32.0,1
24.0,28.0,27.0,23.0,21.0,20.0,21.0,20.0,18.0,23.0,17.0,15.0,13.0,13.0,15.0,14.0,1
-83.0,-82.0,-93.0,-83.0,-73.0,-78.0,-76.0,-80.0,-65.0,-32.0,29.0,-19.0,-37.0,-39.0,-36.0,-35.0,1
3.0,7.0,4.0,2.0,1.0,1.0,-3.0,-3.0,9.0,-26.0,-3.0,5.0,2.0,2.0,1.0,3.0,1
-16.0,-21.0,-19.0,-15.0,-14.0,-14.0,-15.0,-15.0,-10.0,-7.0,-7.0,-7.0,-6.0,-7.0,-6.0,-5.0,1
-14.0,-16.0,-18.0,-18.0,-14.0,-15.0,-13.0,-12.0,-24.0,-21.0,-18.0,-20.0,-18.0,-20.0,-19.0,-23.0,1
13.0,13.0,14.0,12.0,13.0,12.0,11.0,9.0,6.0,8.0,24.0,10.0,6.0,-1.0,-2.0,-5.0,1
13.0,14.0,14.0,16.0,16.0,13.0,11.0,13.0,15.0,17.0,16.0,15.0,17.0,16.0,15.0,13.0,1
-88.0,-84.0,-77.0,-66.0,-58.0,-56.0,-56.0,-58.0,-102.0,-155.0,-142.0,-105.0,-99.0,-98.0,-97.0,-99.0,1
-11.0,-11.0,-9.0,-8.0,-9.0,-10.0,-8.0,-8.0,-7.0,-5.0,-2.0,-5.0,-2.0,-5.0,-6.0,-7.0,1
-17.0,-3.0,-3.0,-2.0,-2.0,-1.0,-1.0,-4.0,-2.0,-7.0,-3.0,-6.0,-10.0,-9.0,-4.0,-2.0,1
-60.0,-64.0,-61.0,-52.0,-47.0,-43.0,-41.0,-42.0,-91.0,-107.0,-154.0,-102.0,-95.0,-91.0,-90.0,-88.0,1
-1.0,-4.0,-2.0,-1.0,2.0,2.0,2.0,2.0,-9.0,-8.0,-9.0,-8.0,-5.0,-2.0,-2.0,-5.0,1
20.0,19.0,19.0,16.0,15.0,14.0,12.0,12.0,19.0,22.0,27.0,19.0,19.0,17.0,17.0,16.0,1
-20.0,-15.0,-22.0,-18.0,-20.0,-17.0,-21.0,-20.0,-9.0,-43.0,-17.0,-12.0,-13.0,-12.0,-15.0,-16.0,1
4.0,6.0,5.0,4.0,2.0,-2.0,0.0,-1.0,1.0,3.0,0.0,3.0,5.0,4.0,2.0,2.0,1
-32.0,-30.0,-36.0,-32.0,-34.0,-31.0,-33.0,-33.0,-19.0,-63.0,-33.0,-23.0,-24.0,-23.0,-25.0,-24.0,1
11.0,13.0,12.0,12.0,14.0,13.0,12.0,12.0,10.0,17.0,21.0,16.0,20.0,21.0,17.0,14.0,1
-86.0,-95.0,-86.0,-74.0,-65.0,-61.0,-63.0,-70.0,-112.0,-167.0,-150.0,-115.0,-109.0,-105.0,-102.0,-105.0,1
10.0,12.0,10.0,9.0,10.0,14.0,11.0,9.0,7.0,11.0,18.0,17.0,14.0,15.0,16.0,15.0,1
14.0,14.0,13.0,14.0,14.0,17.0,19.0,17.0,7.0,5.0,4.0,8.0,11.0,13.0,13.0,11.0,1
-7.0,-11.0,-9.0,-7.0,-8.0,-3.0,-2.0,-4.0,-5.0,-3.0,-1.0,-8.0,-14.0,-12.0,-8.0,-4.0,1
-28.0,-11.0,-17.0,-11.0,-12.0,-7.0,-11.0,-13.0,-9.0,-63.0,-40.0,-19.0,-22.0,-21.0,-24.0,-22.0,1
2.0,0.0,-2.0,0.0,0.0,-5.0,-7.0,-6.0,-4.0,-19.0,-10.0,-2.0,-2.0,0.0,-5.0,-8.0,1
-12.0,-9.0,-5.0,-1.0,1.0,5.0,8.0,9.0,-31.0,-64.0,0.0,-16.0,-12.0,-13.0,-13.0,-16.0,1
0.0,5.0,3.0,2.0,5.0,4.0,3.0,4.0,7.0,13.0,15.0,8.0,8.0,8.0,7.0,7.0,1
-5.0,-4.0,-5.0,-6.0,-6.0,-5.0,-6.0,-6.0,-6.0,-3.0,-1.0,0.0,1.0,0.0,-2.0,-3.0,1
-6.0,2.0,-2.0,0.0,4.0,5.0,2.0,1.0,-10.0,-32.0,-12.0,-3.0,-3.0,0.0,-9.0,-15.0,1
-76.0,-72.0,-77.0,-75.0,-75.0,-85.0,-90.0,-95.0,-82.0,-25.0,33.0,-27.0,-54.0,-67.0,-65.0,-63.0,1
-18.0,-6.0,-5.0,-7.0,-12.0,-14.0,-14.0,-15.0,2.0,1.0,1.0,5.0,3.0,-2.0,-4.0,-3.0,1
-30.0,-26.0,-24.0,-32.0,-37.0,-25.0,-26.0,-22.0,-35.0,-161.0,-170.0,-130.0,-109.0,-99.0,-110.0,-112.0,1
44.0,47.0,46.0,45.0,46.0,45.0,44.0,43.0,47.0,32.0,51.0,49.0,55.0,55.0,50.0,46.0,1
-14.0,-18.0,-16.0,-10.0,-12.0,-15.0,-18.0,-18.0,-6.0,0.0,-1.0,-4.0,-5.0,-7.0,-6.0,-4.0,1
-4.0,-5.0,-7.0,-5.0,-7.0,-7.0,-12.0,-9.0,-7.0,-38.0,-14.0,-7.0,-2.0,-2.0,-8.0,-10.0,1
-84.0,-84.0,-81.0,-60.0,-47.0,-48.0,-35.0,-42.0,-53.0,-52.0,-64.0,-37.0,-31.0,-17.0,-22.0,-34.0,1
14.0,15.0,12.0,12.0,14.0,13.0,11.0,14.0,14.0,9.0,19.0,12.0,14.0,14.0,12.0,11.0,1
