0,1,2,3,4,5,6,7,8,9,10,11,12,13,14,15,16
44.0,28.0,25.0,18.0,9.0,-21.0,-76.0,-59.0,18.0,17.0,14.0,15.0,16.0,21.0,32.0,4.0,3
422.0,223.0,168.0,110.0,0.0,-203.0,-779.0,-491.0,-47.0,-65.0,79.0,84.0,92.0,69.0,-47.0,-470.0,3
-11.0,50.0,53.0,72.0,94.0,126.0,131.0,89.0,94.0,89.0,56.0,50.0,57.0,59.0,51.0,34.0,3
28.0,25.0,21.0,21.0,19.0,18.0,34.0,41.0,27.0,24.0,15.0,14.0,13.0,12.0,10.0,23.0,3
95.0,54.0,42.0,39.0,29.0,-6.0,-140.0,-139.0,-57.0,-81.0,19.0,17.0,7.0,-7.0,-74.0,-140.0,3
89.0,62.0,58.0,59.0,50.0,4.0,-139.0,-101.0,11.0,11.0,35.0,38.0,38.0,29.0,-10.0,-46.0,3
76.0,22.0,10.0,0.0,-21.0,-69.0,-251.0,-195.0,4.0,3.0,-2.0,0.0,5.0,1.0,0.0,53.0,3
-23.0,-38.0,-37.0,-33.0,-37.0,-54.0,-111.0,-83.0,-35.0,-40.0,-31.0,-30.0,-22.0,-10.0,21.0,-15.0,3
4.0,0.0,0.0,9.0,29.0,37.0,-39.0,-52.0,-9.0,-9.0,-4.0,-3.0,-2.0,0.0,9.0,2.0,3
-32.0,-15.0,-7.0,3.0,0.0,-5.0,-3.0,-31.0,-16.0,-14.0,-7.0,-5.0,-7.0,-12.0,-3.0,7.0,3
-6.0,3.0,0.0,0.0,2.0,18.0,37.0,43.0,-11.0,-9.0,-5.0,-6.0,-5.0,-7.0,38.0,-2.0,3
-662.0,-164.0,-95.0,-1.0,83.0,460.0,1758.0,1689.0,-59.0,-76.0,-13.0,-24.0,-29.0,-50.0,-103.0,-117.0,3
28.0,18.0,21.0,28.0,50.0,58.0,-35.0,-46.0,17.0,16.0,19.0,19.0,17.0,22.0,31.0,14.0,3
170.0,127.0,100.0,96.0,50.0,-17.0,-237.0,-36.0,-11.0,-35.0,62.0,64.0,71.0,52.0,8.0,-199.0,3
153.0,65.0,44.0,29.0,5.0,-53.0,-223.0,-191.0,14.0,17.0,22.0,25.0,24.0,21.0,31.0,1.0,3
0.0,7.0,3.0,5.0,6.0,14.0,5.0,-8.0,-5.0,0.0,4.0,5.0,7.0,13.0,27.0,-14.0,3
21.0,22.0,21.0,25.0,30.0,39.0,72.0,86.0,21.0,19.0,15.0,19.0,21.0,23.0,11.0,3.0,3
-16.0,-15.0,-13.0,-14.0,-13.0,-13.0,0.0,20.0,-9.0,-12.0,-11.0,-11.0,-10.0,-15.0,-7.0,64.0,3
186.0,46.0,15.0,-16.0,-48.0,-157.0,-431.0,-415.0,-14.0,-25.0,-13.0,-17.0,-17.0,-13.0,-4.0,-77.0,3
39.0,9.0,5.0,-5.0,-22.0,-54.0,-167.0,-107.0,-5.0,-1.0,-7.0,-10.0,-13.0,-27.0,-79.0,-43.0,3
-5.0,3.0,1.0,0.0,5.0,13.0,4.0,-3.0,-11.0,-5.0,1.0,1.0,5.0,10.0,19.0,-26.0,3
-430.0,-115.0,-69.0,-8.0,59.0,329.0,1167.0,1041.0,13.0,7.0,0.0,-5.0,-12.0,-36.0,-28.0,17.0,3
61.0,3.0,-9.0,-20.0,-36.0,-110.0,-331.0,-324.0,-49.0,-62.0,-23.0,-25.0,-25.0,-45.0,-89.0,-142.0,3
-10.0,8.0,11.0,16.0,17.0,14.0,-48.0,-43.0,6.0,10.0,9.0,9.0,9.0,8.0,-29.0,-5.0,3
105.0,54.0,41.0,19.0,5.0,-27.0,-172.0,-128.0,27.0,29.0,23.0,26.0,29.0,28.0,19.0,25.0,3
106.0,32.0,14.0,-7.0,-37.0,-107.0,-300.0,-239.0,22.0,29.0,-1.0,-6.0,-6.0,-29.0,-78.0,-15.0,3
27.0,-10.0,-21.0,-44.0,-105.0,-166.0,-225.0,-128.0,3.0,3.0,-32.0,-25.0,-24.0,-31.0,2.0,97.0,3
11.0,8.0,8.0,6.0,4.0,-1.0,54.0,38.0,20.0,15.0,9.0,8.0,12.0,23.0,26.0,7.0,3
11.0,8.0,2.0,-1.0,0.0,10.0,40.0,77.0,10.0,8.0,3.0,3.0,3.0,3.0,3.0,-4.0,3
769.0,207.0,125.0,22.0,-77.0,-550.0,-1980.0,-1978.0,-15.0,-20.0,8.0,3.0,5.0,-1.0,-24.0,-91.0,3
-212.0,-77.0,-69.0,-50.0,-15.0,115.0,526.0,545.0,-56.0,-64.0,-34.0,-50.0,-54.0,-39.0,-7.0,9.0,3
-88.0,-10.0,2.0,20.0,58.0,106.0,136.0,33.0,27.0,49.0,17.0,15.0,4.0,-2.0,-43.0,-7.0,3
172.0,71.0,51.0,31.0,3.0,-72.0,-367.0,-298.0,29.0,27.0,28.0,29.0,32.0,41.0,19.0,-23.0,3
24.0,8.0,2.0,4.0,-13.0,-35.0,-114.0,-91.0,-32.0,-35.0,-6.0,-1.0,5.0,-14.0,-74.0,-362.0,3
32.0,25.0,21.0,20.0,20.0,24.0,34.0,37.0,29.0,25.0,17.0,15.0,13.0,12.0,15.0,12.0,3
19.0,13.0,9.0,2.0,-1.0,-4.0,16.0,40.0,20.0,16.0,8.0,6.0,11.0,23.0,-10.0,17.0,3
40.0,31.0,23.0,17.0,14.0,9.0,47.0,74.0,23.0,20.0,14.0,11.0,8.0,-2.0,-39.0,12.0,3
-23.0,-12.0,-10.0,-12.0,-11.0,-3.0,2.0,21.0,-87.0,-126.0,-22.0,-16.0,-14.0,-18.0,-38.0,-54.0,3
94.0,80.0,63.0,60.0,24.0,-22.0,-203.0,-25.0,-82.0,-111.0,31.0,36.0,43.0,4.0,-74.0,-307.0,3
-66.0,-25.0,-12.0,-26.0,-31.0,-27.0,159.0,168.0,39.0,54.0,5.0,3.0,0.0,-5.0,6.0,119.0,3
21.0,-2.0,-3.0,-2.0,-14.0,-26.0,-119.0,-134.0,-4.0,-1.0,-6.0,-6.0,-3.0,-7.0,38.0,29.0,3
31.0,25.0,17.0,28.0,38.0,48.0,-8.0,-41.0,23.0,23.0,24.0,25.0,38.0,95.0,168.0,142.0,3
-24.0,20.0,20.0,25.0,21.0,37.0,100.0,108.0,20.0,14.0,27.0,23.0,23.0,25.0,34.0,70.0,3
-15.0,-19.0,-22.0,-29.0,-42.0,-61.0,-125.0,-104.0,-37.0,-31.0,-25.0,-33.0,-45.0,-63.0,-114.0,-99.0,3
-10.0,-23.0,-23.0,-26.0,-31.0,-37.0,-140.0,-129.0,-31.0,-27.0,-21.0,-21.0,-22.0,-22.0,-33.0,-66.0,3
-1.0,0.0,0.0,0.0,7.0,9.0,16.0,-8.0,8.0,7.0,-1.0,-3.0,-2.0,0.0,13.0,1.0,3
42.0,7.0,0.0,-1.0,-12.0,-36.0,-138.0,-119.0,-31.0,-29.0,-15.0,-11.0,-10.0,-20.0,-75.0,-77.0,3
-1.0,2.0,3.0,3.0,0.0,-4.0,-45.0,-47.0,-5.0,0.0,3.0,3.0,0.0,-12.0,-46.0,-29.0,3
4.0,3.0,6.0,6.0,14.0,37.0,58.0,62.0,21.0,17.0,11.0,15.0,19.0,38.0,59.0,50.0,3
55.0,47.0,36.0,23.0,23.0,6.0,-10.0,32.0,29.0,28.0,18.0,14.0,12.0,0.0,-82.0,-66.0,3
-304.0,-109.0,-84.0,-24.0,53.0,250.0,681.0,428.0,60.0,89.0,-4.0,-20.0,-16.0,1.0,40.0,141.0,3
267.0,88.0,47.0,-7.0,-120.0,-310.0,-681.0,-476.0,-28.0,-42.0,-17.0,-10.0,-15.0,-59.0,-45.0,-34.0,3
-1.0,4.0,8.0,19.0,11.0,-14.0,-71.0,-50.0,-11.0,-5.0,3.0,3.0,-2.0,-11.0,-54.0,-47.0,3
61.0,31.0,20.0,19.0,22.0,17.0,-13.0,13.0,10.0,4.0,5.0,6.0,10.0,9.0,1.0,-10.0,3
66.0,14.0,8.0,-4.0,-14.0,-62.0,-178.0,-206.0,-12.0,-11.0,-3.0,-4.0,-5.0,-3.0,-23.0,-8.0,3
-3.0,-5.0,-7.0,-10.0,-21.0,-33.0,-20.0,4.0,0.0,-2.0,-6.0,-10.0,-15.0,-22.0,-12.0,17.0,3
54.0,17.0,11.0,4.0,-3.0,-21.0,-94.0,-60.0,-5.0,-7.0,0.0,1.0,-2.0,-19.0,-29.0,-37.0,3
33.0,12.0,5.0,-1.0,-7.0,-14.0,-60.0,-15.0,4.0,1.0,-3.0,-4.0,-5.0,-16.0,-30.0,-12.0,3
58.0,40.0,35.0,33.0,26.0,16.0,6.0,29.0,19.0,26.0,25.0,24.0,23.0,21.0,49.0,9.0,3
712.0,166.0,77.0,-10.0,-71.0,-466.0,-2010.0,-2014.0,-27.0,-33.0,-10.0,-19.0,-21.0,-35.0,-47.0,-84.0,3
-1.0,-4.0,-4.0,-4.0,-18.0,-55.0,-114.0,-72.0,-15.0,-13.0,-5.0,-8.0,-15.0,-31.0,-92.0,-52.0,3
-8.0,-9.0,-6.0,-2.0,0.0,0.0,3.0,8.0,-12.0,-7.0,-4.0,0.0,2.0,6.0,25.0,2.0,3
11.0,38.0,44.0,55.0,45.0,42.0,55.0,74.0,1.0,-23.0,38.0,37.0,40.0,21.0,2.0,-56.0,3
-8.0,25.0,21.0,38.0,40.0,35.0,86.0,24.0,2.0,3.0,25.0,24.0,21.0,6.0,-30.0,71.0,3
-47.0,-41.0,-41.0,-44.0,-43.0,-35.0,-3.0,-2.0,-44.0,-39.0,-36.0,-41.0,-46.0,-65.0,-80.0,-66.0,3
-55.0,-13.0,-7.0,3.0,24.0,80.0,326.0,296.0,18.0,15.0,3.0,4.0,7.0,15.0,35.0,49.0,3
-14.0,-10.0,-13.0,-1.0,12.0,39.0,41.0,-9.0,-129.0,-160.0,-17.0,-15.0,-10.0,-12.0,-77.0,-160.0,3
-21.0,-16.0,-14.0,-7.0,-5.0,-4.0,-24.0,-37.0,-22.0,-21.0,-11.0,-7.0,-4.0,-5.0,20.0,-9.0,3
25.0,18.0,17.0,13.0,5.0,-4.0,12.0,23.0,25.0,24.0,18.0,18.0,15.0,-1.0,15.0,40.0,3
-86.0,-27.0,-21.0,-13.0,-16.0,0.0,172.0,153.0,39.0,50.0,-8.0,-13.0,-18.0,-15.0,-64.0,88.0,3
55.0,-1.0,-13.0,-28.0,-42.0,-90.0,-227.0,-214.0,-57.0,-71.0,-26.0,-29.0,-28.0,-38.0,-130.0,-138.0,3
77.0,39.0,29.0,23.0,11.0,-26.0,-130.0,-91.0,-5.0,-7.0,8.0,12.0,14.0,12.0,17.0,-23.0,3
-38.0,-22.0,-15.0,-18.0,-19.0,-1.0,59.0,38.0,48.0,61.0,-4.0,-5.0,-6.0,0.0,28.0,124.0,3
-18.0,-18.0,-19.0,-18.0,-21.0,-23.0,-30.0,-27.0,-18.0,-16.0,-13.0,-18.0,-21.0,-31.0,-44.0,-5.0,3
95.0,36.0,28.0,18.0,5.0,-53.0,-188.0,-184.0,10.0,8.0,13.0,13.0,8.0,-2.0,-51.0,-20.0,3
22.0,21.0,23.0,23.0,20.0,16.0,32.0,25.0,22.0,25.0,25.0,26.0,29.0,35.0,14.0,8.0,3
-104.0,-5.0,4.0,20.0,50.0,102.0,202.0,146.0,16.0,48.0,11.0,3.0,-6.0,-14.0,-109.0,-98.0,3
-25.0,-20.0,-19.0,-18.0,-25.0,-28.0,-15.0,-15.0,-21.0,-18.0,-14.0,-13.0,-13.0,-6.0,-10.0,-2.0,3
-72.0,4.0,9.0,28.0,34.0,69.0,225.0,193.0,64.0,76.0,31.0,32.0,34.0,55.0,49.0,94.0,3
16.0,14.0,10.0,10.0,6.0,9.0,9.0,18.0,27.0,20.0,11.0,11.0,10.0,12.0,31.0,27.0,3
12.0,28.0,31.0,42.0,65.0,68.0,101.0,-48.0,-97.0,-150.0,4.0,11.0,14.0,2.0,2.0,-58.0,3
52.0,52.0,51.0,50.0,40.0,31.0,52.0,54.0,58.0,56.0,46.0,43.0,41.0,43.0,70.0,60.0,3
-7.0,-21.0,-24.0,-26.0,-31.0,-52.0,-123.0,-83.0,-25.0,-24.0,-20.0,-20.0,-19.0,-12.0,-24.0,-18.0,3
32.0,22.0,21.0,25.0,30.0,40.0,47.0,60.0,19.0,19.0,16.0,21.0,25.0,27.0,28.0,32.0,3
14.0,4.0,-2.0,-3.0,9.0,19.0,22.0,22.0,8.0,2.0,-6.0,-9.0,-9.0,-13.0,1.0,6.0,3
7.0,18.0,20.0,21.0,24.0,26.0,38.0,5.0,4.0,8.0,9.0,13.0,11.0,-3.0,-30.0,-45.0,3
-73.0,-66.0,-61.0,-58.0,-54.0,-49.0,-91.0,-87.0,-48.0,-49.0,-44.0,-43.0,-42.0,-35.0,5.0,-10.0,3
-4.0,-1.0,0.0,-3.0,-9.0,-20.0,-28.0,-24.0,-5.0,-3.0,-2.0,-5.0,-5.0,-7.0,-29.0,-24.0,3
-38.0,-24.0,-19.0,-11.0,-6.0,3.0,4.0,-19.0,-21.0,-16.0,-10.0,-7.0,-4.0,5.0,3.0,-33.0,3
33.0,20.0,15.0,13.0,10.0,10.0,-90.0,-72.0,5.0,2.0,11.0,7.0,10.0,11.0,5.0,-23.0,3
-95.0,-27.0,-29.0,-15.0,21.0,113.0,344.0,317.0,53.0,62.0,-5.0,-17.0,-12.0,12.0,-20.0,82.0,3
96.0,28.0,9.0,-4.0,-33.0,-118.0,-341.0,-271.0,4.0,4.0,0.0,0.0,0.0,19.0,-3.0,12.0,3
-39.0,-31.0,-33.0,-20.0,-12.0,10.0,-18.0,-59.0,-153.0,-184.0,-36.0,-35.0,-32.0,-37.0,-94.0,-167.0,3
-4.0,-7.0,-7.0,-12.0,-16.0,-12.0,7.0,-3.0,-12.0,-12.0,-10.0,-10.0,-9.0,-14.0,-8.0,-11.0,3
-432.0,-107.0,-59.0,6.0,68.0,326.0,1153.0,1033.0,8.0,6.0,6.0,3.0,-4.0,-22.0,-20.0,-31.0,3
-72.0,5.0,21.0,48.0,83.0,138.0,262.0,178.0,58.0,78.0,32.0,29.0,33.0,38.0,94.0,188.0,3
-17.0,-15.0,-15.0,-13.0,-15.0,-13.0,-25.0,-11.0,-14.0,-13.0,-11.0,-15.0,-14.0,-11.0,-8.0,-4.0,3
-39.0,4.0,8.0,28.0,55.0,103.0,195.0,137.0,138.0,159.0,23.0,19.0,25.0,73.0,226.0,535.0,3
10.0,-3.0,-12.0,-35.0,-86.0,-124.0,-136.0,-55.0,25.0,24.0,-27.0,-24.0,-18.0,-20.0,12.0,106.0,3
37.0,53.0,52.0,68.0,96.0,120.0,140.0,95.0,9.0,0.0,38.0,42.0,45.0,57.0,104.0,-10.0,3
96.0,37.0,28.0,25.0,4.0,-52.0,-293.0,-250.0,9.0,9.0,17.0,19.0,19.0,13.0,-20.0,-11.0,3
6.0,-9.0,-4.0,-5.0,-6.0,-10.0,-20.0,7.0,-32.0,-35.0,-4.0,-3.0,-2.0,0.0,9.0,4.0,3
19.0,18.0,15.0,21.0,27.0,24.0,31.0,41.0,28.0,21.0,16.0,19.0,21.0,19.0,15.0,34.0,3
52.0,19.0,14.0,9.0,-8.0,-41.0,-146.0,-81.0,-3.0,5.0,-1.0,-3.0,-6.0,-24.0,-111.0,-101.0,3
-22.0,-15.0,-11.0,-8.0,-7.0,-5.0,-22.0,-36.0,-12.0,-10.0,-7.0,-5.0,-5.0,-4.0,0.0,1.0,3
3.0,8.0,10.0,12.0,12.0,13.0,19.0,-2.0,11.0,9.0,7.0,9.0,14.0,29.0,71.0,27.0,3
63.0,32.0,25.0,17.0,4.0,-25.0,-116.0,-71.0,0.0,-2.0,16.0,13.0,15.0,17.0,17.0,-43.0,3
11.0,19.0,16.0,17.0,17.0,17.0,25.0,43.0,23.0,20.0,14.0,18.0,18.0,10.0,12.0,27.0,3
-133.0,-73.0,-64.0,-34.0,-2.0,64.0,143.0,16.0,-7.0,-15.0,-34.0,-39.0,-39.0,-18.0,147.0,480.0,3
-103.0,-45.0,-40.0,-28.0,-14.0,43.0,159.0,102.0,-41.0,-43.0,-23.0,-29.0,-29.0,-31.0,-12.0,-66.0,3
14.0,24.0,23.0,25.0,27.0,30.0,25.0,14.0,16.0,16.0,15.0,17.0,18.0,18.0,36.0,39.0,3
-33.0,-5.0,-5.0,-3.0,-2.0,0.0,26.0,19.0,53.0,52.0,-1.0,-1.0,2.0,9.0,37.0,140.0,3
22.0,21.0,20.0,15.0,14.0,16.0,3.0,18.0,19.0,20.0,17.0,18.0,13.0,7.0,-23.0,-17.0,3
-26.0,-20.0,-20.0,-17.0,-12.0,-7.0,10.0,7.0,-12.0,-10.0,-9.0,-8.0,-9.0,-2.0,-1.0,-11.0,3
65.0,-3.0,-10.0,-23.0,-37.0,-77.0,-274.0,-237.0,-9.0,-11.0,-13.0,-13.0,-11.0,-9.0,-5.0,13.0,3
70.0,54.0,49.0,35.0,30.0,32.0,75.0,102.0,58.0,54.0,31.0,33.0,45.0,55.0,58.0,66.0,3
6.0,11.0,9.0,10.0,-1.0,-23.0,-20.0,-10.0,-1.0,5.0,6.0,5.0,4.0,-6.0,-35.0,14.0,3
-14.0,-10.0,-8.0,-8.0,-9.0,-3.0,-6.0,-4.0,-7.0,-10.0,-6.0,-7.0,-5.0,-2.0,-4.0,-12.0,3
14.0,21.0,20.0,17.0,8.0,-8.0,-20.0,-37.0,6.0,7.0,6.0,2.0,2.0,0.0,41.0,27.0,3
14.0,12.0,2.0,1.0,-2.0,-4.0,4.0,8.0,17.0,14.0,5.0,-1.0,-6.0,-13.0,-16.0,14.0,3
14.0,39.0,32.0,35.0,23.0,12.0,-58.0,1.0,-62.0,-92.0,8.0,19.0,26.0,2.0,-28.0,-156.0,3
-8.0,-11.0,-11.0,-17.0,-23.0,-31.0,-39.0,-36.0,-6.0,-8.0,-10.0,-14.0,-19.0,-28.0,-53.0,5.0,3
8.0,18.0,22.0,25.0,29.0,33.0,77.0,61.0,29.0,25.0,18.0,19.0,19.0,17.0,26.0,27.0,3
28.0,27.0,26.0,19.0,12.0,7.0,1.0,14.0,23.0,21.0,13.0,14.0,12.0,8.0,2.0,4.0,3
-194.0,-64.0,-41.0,-6.0,62.0,179.0,401.0,270.0,195.0,241.0,0.0,-5.0,-8.0,27.0,164.0,365.0,3
-25.0,13.0,31.0,31.0,63.0,156.0,288.0,190.0,202.0,252.0,51.0,38.0,40.0,57.0,92.0,117.0,3
14.0,4.0,1.0,-3.0,-11.0,-18.0,-22.0,8.0,-1.0,-4.0,-3.0,-5.0,-11.0,-20.0,-8.0,-7.0,3
12.0,4.0,5.0,9.0,27.0,37.0,-5.0,-2.0,3.0,1.0,2.0,4.0,7.0,19.0,30.0,8.0,3
194.0,85.0,68.0,41.0,4.0,-82.0,-354.0,-308.0,75.0,75.0,42.0,39.0,44.0,68.0,119.0,49.0,3
136.0,27.0,5.0,-17.0,-46.0,-126.0,-398.0,-319.0,-6.0,-13.0,-8.0,-12.0,-11.0,-16.0,4.0,-20.0,3
25.0,4.0,-1.0,-7.0,-18.0,-36.0,-102.0,-93.0,-11.0,-8.0,-6.0,-5.0,-3.0,-3.0,-54.0,-50.0,3
-69.0,9.0,23.0,38.0,61.0,116.0,273.0,219.0,127.0,143.0,27.0,19.0,11.0,12.0,17.0,332.0,3
24.0,21.0,21.0,21.0,27.0,19.0,1.0,29.0,20.0,19.0,18.0,19.0,21.0,19.0,4.0,8.0,3
-298.0,-99.0,-66.0,-26.0,17.0,127.0,335.0,230.0,-90.0,-82.0,-37.0,-31.0,-27.0,-12.0,3.0,21.0,3
-14.0,39.0,38.0,52.0,59.0,70.0,207.0,128.0,129.0,146.0,47.0,41.0,30.0,31.0,54.0,274.0,3
-59.0,31.0,32.0,48.0,51.0,99.0,166.0,266.0,-32.0,-60.0,21.0,32.0,36.0,15.0,-8.0,-114.0,3
-5.0,-8.0,-11.0,-12.0,-10.0,-10.0,10.0,40.0,0.0,-5.0,-11.0,-10.0,-4.0,4.0,63.0,41.0,3
199.0,52.0,20.0,-9.0,-48.0,-178.0,-515.0,-486.0,-52.0,-54.0,-24.0,-24.0,-24.0,-27.0,-45.0,-90.0,3
13.0,-1.0,-6.0,-10.0,-11.0,-19.0,-22.0,18.0,1.0,-2.0,-13.0,-10.0,0.0,25.0,38.0,8.0,3
85.0,87.0,73.0,72.0,49.0,13.0,-108.0,-26.0,-69.0,-96.0,34.0,41.0,48.0,13.0,-55.0,-291.0,3
-28.0,-11.0,-4.0,-2.0,-3.0,-1.0,-9.0,-10.0,-7.0,-6.0,-6.0,-5.0,-3.0,5.0,13.0,2.0,3
342.0,185.0,145.0,116.0,65.0,-66.0,-488.0,-379.0,-47.0,-54.0,83.0,78.0,87.0,71.0,-51.0,-539.0,3
58.0,57.0,57.0,54.0,48.0,40.0,85.0,108.0,41.0,43.0,42.0,46.0,51.0,59.0,123.0,57.0,3
-6.0,-1.0,1.0,5.0,2.0,12.0,12.0,21.0,-18.0,-30.0,-1.0,1.0,0.0,3.0,2.0,-41.0,3
14.0,17.0,18.0,17.0,20.0,30.0,37.0,32.0,11.0,12.0,9.0,10.0,10.0,9.0,18.0,29.0,3
-6.0,-12.0,-14.0,-14.0,-22.0,-41.0,-135.0,-130.0,-30.0,-20.0,-12.0,-15.0,-20.0,-35.0,-79.0,-88.0,3
-13.0,-28.0,-20.0,-22.0,-25.0,-34.0,-60.0,-39.0,-29.0,-37.0,-18.0,-18.0,-17.0,-19.0,-27.0,-10.0,3
165.0,48.0,23.0,-2.0,-35.0,-111.0,-372.0,-297.0,29.0,32.0,6.0,3.0,10.0,23.0,41.0,13.0,3
-122.0,-31.0,-9.0,-18.0,19.0,85.0,285.0,187.0,57.0,68.0,-3.0,1.0,-8.0,-6.0,18.0,161.0,3
5.0,6.0,11.0,22.0,35.0,35.0,-99.0,-95.0,-2.0,-2.0,11.0,14.0,19.0,29.0,59.0,7.0,3
104.0,70.0,58.0,56.0,29.0,-28.0,-174.0,-111.0,6.0,-26.0,18.0,25.0,29.0,5.0,-27.0,-110.0,3
-491.0,-140.0,-87.0,-20.0,27.0,283.0,1209.0,1138.0,-25.0,-20.0,-16.0,-17.0,-19.0,-14.0,-3.0,-29.0,3
-227.0,-41.0,-21.0,14.0,51.0,180.0,536.0,528.0,46.0,38.0,6.0,13.0,18.0,29.0,66.0,170.0,3
-22.0,-3.0,-3.0,-1.0,-6.0,-12.0,-35.0,-15.0,-12.0,-4.0,-5.0,-8.0,-10.0,-16.0,-53.0,-35.0,3
-64.0,-11.0,-8.0,15.0,38.0,78.0,149.0,93.0,-89.0,-109.0,-10.0,-10.0,-10.0,-24.0,-69.0,-77.0,3
730.0,203.0,120.0,11.0,-135.0,-600.0,-1934.0,-1727.0,-15.0,-23.0,3.0,-1.0,2.0,-3.0,-26.0,-89.0,3
-119.0,-18.0,-2.0,26.0,62.0,140.0,305.0,241.0,122.0,135.0,20.0,16.0,21.0,69.0,165.0,390.0,3
-6.0,-3.0,-6.0,-5.0,-4.0,8.0,24.0,37.0,8.0,6.0,-8.0,-7.0,-6.0,8.0,-9.0,-14.0,3
37.0,35.0,32.0,31.0,30.0,41.0,21.0,28.0,36.0,29.0,27.0,27.0,32.0,38.0,78.0,76.0,3
-12.0,-20.0,-25.0,-23.0,-30.0,-58.0,-160.0,-101.0,-37.0,-41.0,-22.0,-22.0,-24.0,-25.0,-36.0,-68.0,3
63.0,29.0,25.0,12.0,4.0,-21.0,-137.0,-98.0,9.0,13.0,7.0,2.0,13.0,13.0,38.0,25.0,3
7.0,10.0,10.0,5.0,-3.0,-13.0,-60.0,-42.0,0.0,5.0,5.0,0.0,2.0,8.0,21.0,-3.0,3
68.0,0.0,-12.0,-31.0,-56.0,-116.0,-279.0,-294.0,-35.0,-30.0,-29.0,-31.0,-39.0,-59.0,-55.0,-33.0,3
44.0,20.0,16.0,10.0,2.0,-2.0,-4.0,44.0,16.0,15.0,12.0,11.0,11.0,-3.0,-61.0,-31.0,3
-3.0,0.0,2.0,3.0,2.0,2.0,16.0,20.0,-1.0,1.0,6.0,4.0,3.0,4.0,-4.0,-10.0,3
2.0,3.0,6.0,-2.0,-16.0,-28.0,56.0,116.0,20.0,17.0,8.0,5.0,-1.0,-21.0,-117.0,10.0,3
-28.0,-17.0,-12.0,-10.0,-8.0,-1.0,3.0,-18.0,-14.0,-11.0,-8.0,-8.0,-8.0,-8.0,-27.0,-17.0,3
-7.0,-23.0,-19.0,-26.0,-37.0,-50.0,-66.0,-67.0,-30.0,-30.0,-20.0,-20.0,-16.0,-8.0,-17.0,-41.0,3
37.0,30.0,27.0,29.0,29.0,25.0,11.0,-3.0,41.0,39.0,27.0,29.0,27.0,21.0,58.0,61.0,3
-4.0,0.0,4.0,7.0,8.0,9.0,0.0,-2.0,3.0,7.0,10.0,17.0,10.0,16.0,39.0,1.0,3
11.0,19.0,20.0,29.0,34.0,34.0,50.0,35.0,3.0,9.0,15.0,21.0,21.0,16.0,5.0,-22.0,3
168.0,111.0,85.0,73.0,34.0,-45.0,-282.0,-178.0,-86.0,-115.0,32.0,38.0,46.0,4.0,-76.0,-295.0,3
78.0,66.0,63.0,64.0,57.0,51.0,31.0,59.0,32.0,32.0,42.0,46.0,48.0,51.0,76.0,-6.0,3
16.0,4.0,1.0,-6.0,-6.0,-1.0,-69.0,-48.0,3.0,-3.0,-1.0,-2.0,-4.0,-6.0,-46.0,2.0,3
-6.0,-14.0,-14.0,-13.0,-11.0,-13.0,-43.0,-18.0,-23.0,-33.0,-11.0,-6.0,-1.0,16.0,21.0,-37.0,3
42.0,17.0,13.0,11.0,-13.0,-37.0,-125.0,-95.0,-7.0,-8.0,8.0,9.0,11.0,-5.0,-31.0,-174.0,3
-22.0,-26.0,-24.0,-22.0,-26.0,-36.0,-89.0,-106.0,-18.0,-20.0,-19.0,-21.0,-25.0,-45.0,-63.0,-47.0,3
-106.0,-25.0,-20.0,-5.0,35.0,82.0,262.0,183.0,31.0,38.0,-6.0,-7.0,-4.0,17.0,52.0,128.0,3
63.0,42.0,36.0,30.0,28.0,34.0,33.0,52.0,38.0,31.0,33.0,33.0,39.0,65.0,54.0,33.0,3
36.0,32.0,27.0,27.0,18.0,8.0,26.0,66.0,10.0,14.0,16.0,15.0,8.0,-15.0,-83.0,-79.0,3
-27.0,-21.0,-20.0,-15.0,-15.0,-6.0,18.0,10.0,-10.0,-10.0,-12.0,-13.0,-14.0,-20.0,-33.0,-5.0,3
-15.0,-28.0,-28.0,-28.0,-31.0,-37.0,-85.0,-55.0,-26.0,-27.0,-22.0,-22.0,-18.0,-4.0,-14.0,-27.0,3
-26.0,-25.0,-20.0,-19.0,-32.0,-50.0,-87.0,-60.0,-41.0,-36.0,-17.0,-22.0,-26.0,-49.0,-162.0,-114.0,3
-14.0,-27.0,-32.0,-34.0,-36.0,-24.0,63.0,83.0,-15.0,-15.0,-22.0,-22.0,-13.0,9.0,-5.0,-2.0,3
-17.0,-31.0,-32.0,-37.0,-45.0,-46.0,-44.0,-94.0,-48.0,-50.0,-33.0,-39.0,-43.0,-74.0,-79.0,-39.0,3
29.0,16.0,11.0,7.0,5.0,3.0,17.0,28.0,21.0,16.0,11.0,9.0,9.0,5.0,-19.0,5.0,3
-119.0,-23.0,-4.0,34.0,80.0,154.0,244.0,166.0,-43.0,-42.0,7.0,13.0,11.0,3.0,-98.0,-186.0,3
4.0,25.0,23.0,30.0,28.0,37.0,7.0,40.0,-22.0,-43.0,9.0,17.0,19.0,8.0,16.0,-6.0,3
-43.0,-41.0,-43.0,-36.0,-30.0,-25.0,-31.0,-26.0,-41.0,-41.0,-37.0,-33.0,-28.0,-16.0,-21.0,-31.0,3
226.0,118.0,83.0,66.0,3.0,-117.0,-485.0,-238.0,-103.0,-125.0,39.0,44.0,52.0,17.0,-97.0,-507.0,3
29.0,24.0,22.0,16.0,13.0,12.0,-65.0,-58.0,9.0,8.0,11.0,8.0,-3.0,-33.0,-78.0,-59.0,3
-12.0,2.0,8.0,12.0,13.0,23.0,36.0,17.0,0.0,5.0,3.0,7.0,6.0,4.0,38.0,5.0,3
-8.0,-7.0,-9.0,-8.0,-7.0,0.0,31.0,42.0,-6.0,-4.0,-5.0,-7.0,-9.0,-10.0,-24.0,-37.0,3
-6.0,-20.0,-22.0,-22.0,-23.0,-28.0,5.0,39.0,-50.0,-41.0,-27.0,-30.0,-31.0,-59.0,-160.0,-96.0,3
57.0,-24.0,-30.0,-46.0,-60.0,-120.0,-311.0,-337.0,-43.0,-47.0,-46.0,-43.0,-35.0,-37.0,-26.0,-1.0,3
-149.0,-38.0,-25.0,9.0,38.0,106.0,245.0,177.0,46.0,60.0,3.0,-6.0,-13.0,-10.0,-37.0,103.0,3
58.0,31.0,21.0,13.0,2.0,-24.0,-71.0,-47.0,6.0,3.0,6.0,4.0,-3.0,-32.0,-67.0,-39.0,3
-46.0,-20.0,-13.0,-9.0,13.0,36.0,136.0,20.0,7.0,0.0,-7.0,-7.0,-10.0,-17.0,-37.0,-7.0,3
51.0,9.0,2.0,-1.0,-9.0,-32.0,-120.0,-113.0,0.0,-6.0,1.0,0.0,6.0,13.0,59.0,3.0,3
73.0,58.0,54.0,49.0,40.0,23.0,-31.0,-14.0,33.0,39.0,41.0,42.0,34.0,2.0,-3.0,21.0,3
75.0,43.0,37.0,34.0,19.0,-21.0,-142.0,-105.0,11.0,9.0,20.0,21.0,18.0,-1.0,-36.0,-29.0,3
30.0,48.0,38.0,42.0,24.0,7.0,-70.0,-7.0,-71.0,-100.0,10.0,21.0,26.0,-4.0,-50.0,-206.0,3
-4.0,6.0,7.0,5.0,6.0,4.0,3.0,-2.0,11.0,12.0,9.0,7.0,1.0,-9.0,-35.0,-25.0,3
15.0,13.0,13.0,14.0,14.0,14.0,26.0,35.0,10.0,11.0,8.0,10.0,11.0,17.0,22.0,6.0,3
25.0,12.0,9.0,6.0,3.0,-4.0,2.0,14.0,5.0,6.0,8.0,6.0,4.0,1.0,-30.0,-28.0,3
119.0,78.0,71.0,63.0,45.0,-5.0,-144.0,-121.0,-6.0,-24.0,37.0,36.0,31.0,-3.0,-108.0,-105.0,3
48.0,13.0,8.0,0.0,-23.0,-55.0,-33.0,23.0,-26.0,-45.0,-7.0,-2.0,2.0,-15.0,-37.0,-68.0,3
129.0,63.0,57.0,42.0,22.0,-39.0,-213.0,-124.0,-17.0,-43.0,27.0,28.0,25.0,2.0,26.0,-47.0,3
6.0,4.0,2.0,-2.0,-6.0,-7.0,-12.0,-6.0,9.0,6.0,2.0,1.0,-1.0,3.0,27.0,17.0,3
71.0,29.0,23.0,19.0,8.0,-16.0,-156.0,-131.0,26.0,21.0,17.0,21.0,25.0,34.0,79.0,75.0,3
4.0,6.0,5.0,2.0,0.0,-4.0,-45.0,-52.0,15.0,12.0,11.0,9.0,10.0,27.0,87.0,39.0,3
124.0,40.0,25.0,2.0,-26.0,-109.0,-359.0,-352.0,11.0,6.0,4.0,1.0,-1.0,-1.0,-27.0,-29.0,3
784.0,216.0,128.0,16.0,-96.0,-578.0,-1970.0,-1966.0,-13.0,-20.0,6.0,0.0,2.0,-6.0,-30.0,-97.0,3
-29.0,39.0,43.0,65.0,88.0,114.0,273.0,215.0,170.0,179.0,52.0,50.0,50.0,98.0,256.0,415.0,3
-176.0,-83.0,-76.0,-69.0,-54.0,-40.0,104.0,13.0,-38.0,-19.0,-56.0,-64.0,-76.0,-102.0,-221.0,-69.0,3
153.0,68.0,51.0,43.0,35.0,-20.0,-277.0,-242.0,-66.0,-109.0,15.0,10.0,19.0,14.0,-20.0,-143.0,3
104.0,27.0,19.0,-12.0,-80.0,-150.0,-332.0,-116.0,-2.0,-2.0,-10.0,-6.0,-7.0,-29.0,-23.0,-47.0,3
154.0,80.0,66.0,49.0,21.0,-41.0,-225.0,-135.0,-9.0,-37.0,34.0,35.0,39.0,42.0,31.0,-50.0,3
-8.0,-2.0,2.0,11.0,19.0,38.0,91.0,76.0,5.0,3.0,3.0,6.0,10.0,17.0,24.0,40.0,3
29.0,17.0,14.0,13.0,11.0,3.0,-50.0,-34.0,5.0,2.0,7.0,8.0,4.0,5.0,14.0,5.0,3
5.0,-3.0,-6.0,-8.0,-6.0,-8.0,-22.0,-3.0,-11.0,-11.0,-8.0,-11.0,-15.0,-35.0,-54.0,-41.0,3
-3.0,28.0,26.0,31.0,34.0,48.0,63.0,53.0,70.0,69.0,16.0,20.0,27.0,34.0,60.0,149.0,3
-367.0,-124.0,-74.0,-24.0,64.0,252.0,673.0,465.0,45.0,59.0,-4.0,-10.0,-17.0,-5.0,33.0,129.0,3
-141.0,-31.0,-20.0,12.0,70.0,178.0,381.0,268.0,147.0,186.0,20.0,10.0,10.0,44.0,114.0,224.0,3
515.0,145.0,75.0,-17.0,-166.0,-474.0,-1358.0,-1022.0,-79.0,-89.0,-22.0,-17.0,-19.0,-68.0,-156.0,-474.0,3
-13.0,-18.0,-20.0,-30.0,-32.0,-32.0,-50.0,-37.0,-21.0,-19.0,-17.0,-18.0,-19.0,-15.0,-29.0,-28.0,3
-18.0,-15.0,-14.0,-12.0,-11.0,1.0,18.0,14.0,-8.0,-7.0,-8.0,-9.0,-8.0,3.0,2.0,-1.0,3
5.0,12.0,8.0,2.0,-14.0,-37.0,-62.0,-33.0,98.0,105.0,8.0,9.0,10.0,19.0,60.0,174.0,3
160.0,99.0,84.0,52.0,40.0,-3.0,-143.0,-41.0,19.0,-7.0,38.0,43.0,41.0,-10.0,-27.0,-52.0,3
72.0,11.0,-1.0,-9.0,-39.0,-106.0,-296.0,-239.0,-34.0,-40.0,-16.0,-15.0,-18.0,-27.0,8.0,-64.0,3
-27.0,-11.0,-10.0,-6.0,0.0,19.0,31.0,35.0,-16.0,-17.0,-11.0,-12.0,-14.0,-29.0,-39.0,-38.0,3
84.0,-2.0,-22.0,-48.0,-80.0,-155.0,-387.0,-349.0,-33.0,-32.0,-36.0,-37.0,-33.0,-11.0,-6.0,-25.0,3
30.0,-23.0,-30.0,-25.0,-27.0,-63.0,-239.0,-250.0,-71.0,-81.0,-38.0,-30.0,-20.0,-5.0,38.0,-110.0,3
73.0,19.0,5.0,-28.0,-40.0,-76.0,-192.0,-154.0,-22.0,-27.0,-5.0,-5.0,1.0,-25.0,-70.0,-95.0,3
-37.0,-27.0,-24.0,-26.0,-23.0,-16.0,-12.0,-31.0,-33.0,-29.0,-21.0,-24.0,-29.0,-49.0,-73.0,-61.0,3
-69.0,8.0,12.0,35.0,59.0,102.0,167.0,129.0,58.0,50.0,25.0,17.0,23.0,29.0,23.0,18.0,3
-346.0,-128.0,-105.0,-33.0,47.0,236.0,697.0,551.0,-49.0,-41.0,-35.0,-37.0,-37.0,-31.0,-39.0,36.0,3
-14.0,-15.0,-20.0,-23.0,-21.0,-18.0,-10.0,22.0,-17.0,-18.0,-16.0,-18.0,-19.0,-13.0,8.0,-23.0,3
108.0,60.0,47.0,36.0,23.0,-11.0,-120.0,-73.0,39.0,26.0,26.0,23.0,20.0,-1.0,18.0,29.0,3
-56.0,-28.0,-32.0,-13.0,10.0,63.0,145.0,97.0,-83.0,-111.0,-18.0,-23.0,-22.0,-28.0,-47.0,-59.0,3
-73.0,-31.0,-28.0,-6.0,12.0,60.0,229.0,215.0,-101.0,-121.0,-20.0,-15.0,-5.0,28.0,45.0,19.0,3
58.0,55.0,55.0,58.0,77.0,104.0,128.0,124.0,43.0,43.0,39.0,40.0,43.0,44.0,26.0,43.0,3
-40.0,-51.0,-52.0,-46.0,-39.0,-36.0,-112.0,-125.0,-55.0,-54.0,-40.0,-39.0,-32.0,-16.0,-13.0,-45.0,3
-18.0,-19.0,-16.0,-12.0,-6.0,-5.0,-83.0,-78.0,-32.0,-31.0,-13.0,-10.0,-5.0,6.0,28.0,-15.0,3
89.0,33.0,28.0,16.0,0.0,-47.0,-166.0,-192.0,8.0,12.0,11.0,9.0,4.0,-10.0,-29.0,-16.0,3
19.0,14.0,12.0,9.0,1.0,-14.0,-51.0,-28.0,10.0,11.0,10.0,12.0,5.0,3.0,2.0,-30.0,3
13.0,14.0,13.0,14.0,10.0,7.0,17.0,26.0,5.0,6.0,5.0,5.0,1.0,-22.0,-28.0,-4.0,3
-57.0,-46.0,-46.0,-30.0,-24.0,-24.0,-41.0,-32.0,-72.0,-78.0,-37.0,-38.0,-34.0,-37.0,-62.0,-88.0,3
76.0,21.0,2.0,-16.0,-22.0,-35.0,-60.0,-22.0,9.0,1.0,-5.0,-12.0,-12.0,-7.0,-27.0,-35.0,3
-50.0,-29.0,-25.0,-13.0,-12.0,-15.0,-79.0,-102.0,-92.0,-111.0,-29.0,-23.0,-23.0,-41.0,-69.0,-127.0,3
-70.0,-21.0,-15.0,7.0,27.0,56.0,90.0,1.0,-13.0,-9.0,-5.0,-10.0,-16.0,7.0,66.0,309.0,3
331.0,111.0,62.0,0.0,-119.0,-341.0,-805.0,-572.0,-36.0,-52.0,-12.0,-4.0,-3.0,-26.0,-36.0,-69.0,3
33.0,28.0,27.0,25.0,11.0,-7.0,-22.0,-18.0,14.0,18.0,18.0,17.0,11.0,-6.0,-20.0,-12.0,3
-9.0,-19.0,-21.0,-23.0,-31.0,-45.0,-37.0,-11.0,-20.0,-18.0,-17.0,-19.0,-22.0,-33.0,-50.0,-118.0,3
50.0,31.0,28.0,28.0,34.0,41.0,-19.0,-10.0,28.0,27.0,26.0,29.0,36.0,52.0,85.0,44.0,3
-8.0,-31.0,-32.0,-41.0,-46.0,-58.0,-97.0,-80.0,-33.0,-37.0,-28.0,-28.0,-26.0,-29.0,-8.0,0.0,3
-656.0,-134.0,-54.0,69.0,192.0,626.0,1895.0,1703.0,-4.0,-22.0,37.0,41.0,43.0,42.0,5.0,-7.0,3
-37.0,14.0,11.0,16.0,8.0,40.0,32.0,143.0,-75.0,-97.0,-5.0,4.0,9.0,-20.0,-68.0,-256.0,3
8.0,8.0,6.0,7.0,11.0,25.0,31.0,13.0,4.0,4.0,-2.0,1.0,4.0,11.0,15.0,16.0,3
-152.0,-64.0,-56.0,-33.0,-16.0,48.0,186.0,141.0,-20.0,-16.0,-24.0,-25.0,-19.0,8.0,-2.0,21.0,3
85.0,63.0,57.0,52.0,49.0,37.0,-15.0,8.0,38.0,34.0,35.0,38.0,40.0,51.0,61.0,35.0,3
18.0,12.0,9.0,9.0,10.0,8.0,-15.0,-20.0,-10.0,0.0,8.0,12.0,12.0,21.0,24.0,-27.0,3
29.0,20.0,17.0,19.0,26.0,0.0,-108.0,-74.0,6.0,6.0,8.0,8.0,7.0,0.0,-19.0,-27.0,3
21.0,23.0,24.0,25.0,20.0,21.0,26.0,34.0,9.0,12.0,13.0,12.0,8.0,-7.0,-27.0,5.0,3
-11.0,-8.0,-9.0,-8.0,-12.0,-12.0,21.0,42.0,-2.0,-3.0,-5.0,-7.0,-13.0,-33.0,-50.0,5.0,3
-93.0,-24.0,-18.0,-15.0,25.0,76.0,224.0,168.0,35.0,43.0,-6.0,-6.0,5.0,44.0,96.0,175.0,3
-25.0,46.0,42.0,54.0,48.0,80.0,103.0,220.0,-43.0,-71.0,27.0,35.0,40.0,17.0,-23.0,-193.0,3
-61.0,17.0,24.0,46.0,73.0,138.0,224.0,164.0,23.0,25.0,34.0,40.0,49.0,69.0,80.0,23.0,3
-497.0,-146.0,-92.0,-22.0,25.0,276.0,1199.0,1124.0,-25.0,-24.0,-20.0,-20.0,-19.0,-16.0,-2.0,-24.0,3
-2.0,-3.0,-4.0,-8.0,-8.0,3.0,5.0,21.0,-126.0,-177.0,-23.0,-10.0,-5.0,-4.0,-12.0,-35.0,3
-3.0,-9.0,-8.0,-9.0,-6.0,-13.0,-28.0,-42.0,-19.0,-15.0,-7.0,-6.0,-9.0,-17.0,-31.0,-43.0,3
264.0,146.0,114.0,89.0,41.0,-76.0,-426.0,-312.0,-84.0,-104.0,56.0,59.0,68.0,35.0,-86.0,-451.0,3
24.0,2.0,1.0,-5.0,-1.0,5.0,-71.0,-73.0,21.0,19.0,1.0,0.0,7.0,17.0,101.0,40.0,3
-174.0,-37.0,-8.0,27.0,75.0,173.0,492.0,315.0,19.0,17.0,20.0,19.0,17.0,19.0,50.0,37.0,3
-25.0,-12.0,-9.0,1.0,4.0,10.0,-55.0,-39.0,-65.0,-80.0,-13.0,-11.0,-7.0,-9.0,-36.0,-117.0,3
93.0,16.0,-1.0,-19.0,-40.0,-106.0,-317.0,-257.0,-9.0,-7.0,-9.0,-13.0,-9.0,10.0,14.0,-1.0,3
-191.0,-79.0,-67.0,-35.0,16.0,108.0,305.0,219.0,108.0,149.0,-23.0,-34.0,-37.0,-10.0,39.0,187.0,3
3.0,7.0,8.0,7.0,8.0,5.0,24.0,18.0,-7.0,1.0,4.0,5.0,8.0,13.0,-2.0,-6.0,3
-96.0,-5.0,11.0,32.0,53.0,105.0,271.0,227.0,219.0,277.0,50.0,43.0,41.0,51.0,118.0,171.0,3
43.0,31.0,27.0,21.0,17.0,20.0,56.0,58.0,35.0,31.0,23.0,19.0,16.0,13.0,29.0,26.0,3
29.0,30.0,29.0,32.0,36.0,47.0,7.0,-6.0,9.0,-12.0,24.0,27.0,31.0,38.0,38.0,1.0,3
-10.0,-2.0,3.0,8.0,15.0,31.0,52.0,37.0,6.0,6.0,7.0,9.0,10.0,6.0,48.0,32.0,3
-212.0,-57.0,-38.0,-3.0,50.0,163.0,470.0,365.0,187.0,210.0,10.0,1.0,6.0,64.0,262.0,620.0,3
-35.0,-43.0,-43.0,-52.0,-63.0,-74.0,-86.0,-84.0,-31.0,-33.0,-34.0,-41.0,-32.0,-22.0,22.0,1.0,3
81.0,-19.0,-39.0,-68.0,-101.0,-197.0,-473.0,-422.0,-72.0,-69.0,-70.0,-72.0,-75.0,-89.0,-96.0,-111.0,3
0.0,0.0,-1.0,-2.0,-5.0,2.0,10.0,8.0,-1.0,-3.0,-3.0,-7.0,-11.0,-33.0,-67.0,-45.0,3
-10.0,-17.0,-18.0,-17.0,-12.0,1.0,-7.0,-26.0,-13.0,-11.0,-10.0,-8.0,-3.0,1.0,30.0,-3.0,3
100.0,8.0,-5.0,-22.0,-44.0,-110.0,-292.0,-274.0,-16.0,-18.0,-18.0,-19.0,-16.0,-10.0,43.0,-3.0,3
60.0,-9.0,-24.0,-35.0,-56.0,-133.0,-307.0,-259.0,-78.0,-85.0,-41.0,-46.0,-49.0,-75.0,-164.0,-182.0,3
0.0,-11.0,-16.0,-22.0,-24.0,-25.0,-17.0,-8.0,-1.0,-6.0,-14.0,-16.0,-19.0,-27.0,-31.0,34.0,3
14.0,-7.0,-9.0,-14.0,-14.0,-8.0,-16.0,-21.0,-4.0,-4.0,-7.0,-3.0,4.0,12.0,21.0,30.0,3
29.0,32.0,27.0,39.0,58.0,64.0,-6.0,-33.0,126.0,126.0,25.0,25.0,31.0,74.0,256.0,546.0,3
0.0,-2.0,-1.0,-1.0,4.0,19.0,51.0,34.0,-7.0,-6.0,-5.0,-4.0,-1.0,6.0,17.0,1.0,3
68.0,29.0,27.0,21.0,20.0,-16.0,-121.0,-165.0,4.0,6.0,14.0,15.0,17.0,21.0,25.0,7.0,3
-42.0,28.0,28.0,43.0,46.0,97.0,132.0,214.0,-29.0,-51.0,11.0,25.0,31.0,7.0,-7.0,-93.0,3
-11.0,-6.0,-4.0,-3.0,0.0,5.0,-6.0,-32.0,3.0,1.0,1.0,2.0,6.0,10.0,-2.0,18.0,3
-99.0,-7.0,7.0,13.0,50.0,140.0,426.0,354.0,118.0,128.0,32.0,31.0,29.0,47.0,106.0,348.0,3
-1.0,-14.0,-17.0,-22.0,-26.0,-20.0,11.0,-1.0,-10.0,-14.0,-20.0,-19.0,-15.0,-18.0,-8.0,-18.0,3
7.0,55.0,53.0,68.0,64.0,67.0,96.0,106.0,40.0,20.0,41.0,45.0,50.0,43.0,51.0,71.0,3
8.0,-3.0,-1.0,-4.0,-13.0,-16.0,-32.0,2.0,-4.0,-11.0,-4.0,-5.0,-4.0,-13.0,-44.0,-23.0,3
94.0,15.0,4.0,-13.0,-37.0,-97.0,-333.0,-275.0,-13.0,-11.0,-9.0,-12.0,-14.0,-17.0,-11.0,-14.0,3
3.0,13.0,13.0,24.0,31.0,44.0,53.0,57.0,15.0,13.0,11.0,18.0,23.0,31.0,52.0,34.0,3
116.0,6.0,-8.0,-15.0,-21.0,-77.0,-1215.0,-1812.0,-20.0,-23.0,-9.0,-16.0,-16.0,-17.0,-29.0,-79.0,3
27.0,22.0,16.0,14.0,12.0,24.0,52.0,73.0,17.0,16.0,5.0,3.0,-1.0,-22.0,-31.0,7.0,3
-94.0,-31.0,-21.0,-6.0,12.0,43.0,71.0,26.0,59.0,93.0,-5.0,-12.0,-18.0,-15.0,35.0,143.0,3
-23.0,-21.0,-19.0,-15.0,-10.0,-8.0,-4.0,-14.0,-16.0,-15.0,-15.0,-8.0,-4.0,4.0,26.0,20.0,3
-4.0,11.0,6.0,10.0,25.0,29.0,-27.0,-64.0,17.0,30.0,-1.0,-4.0,-11.0,-17.0,-23.0,105.0,3
13.0,23.0,24.0,29.0,32.0,44.0,78.0,76.0,-9.0,-37.0,15.0,14.0,17.0,15.0,14.0,-5.0,3
46.0,45.0,44.0,45.0,33.0,8.0,16.0,40.0,19.0,13.0,28.0,25.0,11.0,-36.0,-39.0,-33.0,3
55.0,1.0,-9.0,-14.0,-23.0,-65.0,-228.0,-206.0,-37.0,-43.0,-11.0,-19.0,-17.0,-13.0,-32.0,-53.0,3
-18.0,-9.0,-8.0,-4.0,-4.0,-2.0,-9.0,-2.0,-13.0,-12.0,-8.0,-9.0,-11.0,-20.0,-38.0,-28.0,3
87.0,32.0,18.0,9.0,-15.0,-72.0,-248.0,-164.0,-12.0,-17.0,0.0,-1.0,4.0,10.0,19.0,-54.0,3
-31.0,15.0,15.0,21.0,20.0,44.0,116.0,118.0,12.0,8.0,23.0,17.0,20.0,25.0,34.0,71.0,3
4.0,2.0,2.0,2.0,1.0,-6.0,-43.0,-41.0,3.0,1.0,5.0,7.0,5.0,8.0,0.0,6.0,3
-69.0,-18.0,-14.0,1.0,13.0,53.0,118.0,89.0,-320.0,-384.0,-10.0,-8.0,-1.0,11.0,1.0,-55.0,3
6.0,-5.0,-7.0,-11.0,-23.0,-45.0,-53.0,-43.0,-12.0,-9.0,-9.0,-12.0,-15.0,-15.0,-39.0,-70.0,3
-78.0,-23.0,-11.0,12.0,33.0,92.0,206.0,176.0,-25.0,-36.0,3.0,0.0,1.0,-9.0,-4.0,-4.0,3
-75.0,21.0,28.0,50.0,78.0,155.0,336.0,262.0,103.0,120.0,47.0,45.0,42.0,57.0,94.0,160.0,3
-70.0,-40.0,-31.0,-26.0,-25.0,-31.0,-47.0,-53.0,-37.0,-31.0,-24.0,-23.0,-22.0,-22.0,-24.0,-22.0,3
5.0,4.0,3.0,3.0,1.0,1.0,-6.0,8.0,-3.0,-5.0,-1.0,0.0,2.0,1.0,0.0,-7.0,3
-81.0,-23.0,-11.0,-5.0,13.0,55.0,229.0,196.0,256.0,325.0,25.0,13.0,13.0,34.0,92.0,171.0,3
16.0,8.0,8.0,11.0,18.0,9.0,-36.0,-22.0,8.0,8.0,8.0,8.0,7.0,1.0,8.0,-11.0,3
36.0,54.0,55.0,58.0,70.0,87.0,184.0,77.0,58.0,54.0,44.0,42.0,35.0,19.0,-11.0,21.0,3
57.0,13.0,4.0,-3.0,-17.0,-41.0,-161.0,-109.0,22.0,21.0,5.0,1.0,2.0,6.0,35.0,27.0,3
-10.0,0.0,1.0,5.0,6.0,4.0,-32.0,-46.0,-3.0,-2.0,1.0,3.0,1.0,-2.0,-23.0,-17.0,3
-517.0,-164.0,-101.0,-26.0,68.0,376.0,1210.0,1034.0,-13.0,-16.0,-18.0,-18.0,-21.0,-23.0,-33.0,-29.0,3
29.0,19.0,13.0,10.0,12.0,24.0,54.0,59.0,25.0,21.0,13.0,13.0,15.0,22.0,34.0,49.0,3
36.0,4.0,2.0,-2.0,-8.0,-42.0,-118.0,-110.0,-13.0,-9.0,-4.0,-1.0,-1.0,-3.0,11.0,-18.0,3
-155.0,-74.0,-52.0,-32.0,11.0,68.0,176.0,4.0,-35.0,-35.0,-29.0,-26.0,-20.0,-7.0,-8.0,-81.0,3
232.0,149.0,117.0,98.0,55.0,-44.0,-338.0,-221.0,-83.0,-111.0,56.0,64.0,73.0,38.0,-65.0,-375.0,3
-27.0,-63.0,-62.0,-66.0,-69.0,-75.0,-47.0,-16.0,-43.0,-40.0,-52.0,-56.0,-56.0,-66.0,-60.0,-4.0,3
-8.0,-7.0,-6.0,-1.0,11.0,21.0,-27.0,-28.0,-8.0,-13.0,-8.0,-4.0,-3.0,-6.0,-18.0,-25.0,3
22.0,15.0,12.0,15.0,9.0,-3.0,-74.0,-76.0,-46.0,-51.0,-3.0,-10.0,-18.0,-56.0,-99.0,-132.0,3
29.0,68.0,64.0,72.0,64.0,78.0,130.0,138.0,46.0,42.0,56.0,54.0,55.0,52.0,59.0,80.0,3
56.0,22.0,17.0,18.0,15.0,1.0,-32.0,-7.0,26.0,21.0,16.0,17.0,21.0,25.0,40.0,11.0,3
-210.0,-60.0,-29.0,4.0,70.0,184.0,477.0,343.0,182.0,225.0,1.0,-10.0,-25.0,-14.0,61.0,458.0,3
-16.0,-10.0,-10.0,-7.0,-12.0,-23.0,-28.0,-17.0,-16.0,-11.0,-6.0,-8.0,-9.0,-11.0,-35.0,-41.0,3
-31.0,-30.0,-31.0,-27.0,-20.0,-7.0,-16.0,7.0,-28.0,-28.0,-22.0,-23.0,-24.0,-30.0,-43.0,-32.0,3
71.0,30.0,25.0,16.0,8.0,-19.0,-114.0,-89.0,23.0,23.0,19.0,24.0,23.0,22.0,25.0,25.0,3
-17.0,-24.0,-23.0,-25.0,-38.0,-51.0,-44.0,-15.0,-12.0,-13.0,-17.0,-24.0,-31.0,-50.0,-128.0,-56.0,3
54.0,40.0,35.0,37.0,15.0,-9.0,-94.0,-62.0,41.0,27.0,15.0,19.0,23.0,7.0,-16.0,-131.0,3
-428.0,-142.0,-95.0,-26.0,60.0,313.0,1016.0,838.0,-34.0,-32.0,-25.0,-25.0,-30.0,-48.0,-63.0,-27.0,3
50.0,31.0,24.0,14.0,10.0,10.0,17.0,31.0,26.0,25.0,23.0,21.0,19.0,21.0,21.0,9.0,3
-205.0,-66.0,-49.0,-7.0,62.0,224.0,515.0,397.0,-53.0,-73.0,-14.0,-19.0,-13.0,1.0,48.0,19.0,3
-65.0,-42.0,-35.0,-31.0,-30.0,-10.0,21.0,42.0,14.0,7.0,-25.0,-25.0,-26.0,-19.0,20.0,120.0,3
7.0,4.0,5.0,10.0,6.0,0.0,27.0,27.0,1.0,5.0,3.0,8.0,13.0,24.0,63.0,36.0,3
28.0,4.0,-2.0,-10.0,-18.0,-35.0,-116.0,-101.0,-8.0,-8.0,-11.0,-12.0,-9.0,-4.0,24.0,17.0,3
-110.0,-25.0,-22.0,6.0,37.0,105.0,223.0,149.0,-70.0,-76.0,-16.0,-20.0,-18.0,-25.0,-63.0,-111.0,3
242.0,139.0,105.0,82.0,34.0,-77.0,-398.0,-280.0,-100.0,-123.0,50.0,53.0,62.0,23.0,-95.0,-470.0,3
-88.0,-18.0,-2.0,21.0,43.0,82.0,128.0,84.0,-32.0,-43.0,6.0,8.0,8.0,-10.0,-64.0,-67.0,3
4.0,-7.0,-12.0,-11.0,-11.0,-5.0,18.0,35.0,-77.0,-94.0,-27.0,-26.0,-27.0,-55.0,-93.0,-160.0,3
-57.0,-2.0,3.0,23.0,46.0,99.0,193.0,170.0,-47.0,-67.0,10.0,13.0,25.0,46.0,57.0,-2.0,3
-27.0,9.0,13.0,17.0,40.0,78.0,282.0,184.0,31.0,29.0,21.0,15.0,6.0,-5.0,5.0,5.0,3
473.0,174.0,114.0,55.0,-63.0,-328.0,-1095.0,-800.0,1.0,-12.0,42.0,34.0,40.0,36.0,8.0,-124.0,3
-464.0,-97.0,-37.0,31.0,70.0,358.0,1435.0,1427.0,25.0,24.0,23.0,23.0,12.0,-14.0,27.0,-3.0,3
42.0,9.0,2.0,0.0,-12.0,-32.0,-114.0,-66.0,-5.0,-11.0,1.0,-1.0,1.0,9.0,23.0,-31.0,3
23.0,28.0,27.0,28.0,28.0,34.0,39.0,32.0,35.0,35.0,27.0,29.0,31.0,41.0,66.0,74.0,3
-27.0,-9.0,-6.0,5.0,2.0,2.0,-4.0,-10.0,12.0,7.0,2.0,7.0,2.0,-7.0,-12.0,2.0,3
-75.0,-26.0,-17.0,6.0,30.0,91.0,153.0,92.0,-45.0,-52.0,-7.0,-10.0,-11.0,-28.0,-30.0,-64.0,3
48.0,9.0,4.0,-5.0,-21.0,-60.0,-234.0,-196.0,-10.0,-7.0,-4.0,-3.0,-4.0,-4.0,-8.0,-2.0,3
23.0,16.0,11.0,-11.0,-14.0,-18.0,-109.0,-104.0,10.0,7.0,1.0,2.0,5.0,1.0,-7.0,8.0,3
32.0,25.0,22.0,19.0,25.0,36.0,38.0,32.0,24.0,23.0,19.0,18.0,24.0,33.0,13.0,4.0,3
21.0,23.0,21.0,21.0,25.0,32.0,40.0,53.0,28.0,25.0,23.0,24.0,28.0,41.0,82.0,38.0,3
11.0,3.0,-2.0,-4.0,-2.0,8.0,14.0,18.0,17.0,14.0,4.0,3.0,6.0,17.0,38.0,29.0,3
-97.0,15.0,25.0,54.0,92.0,190.0,400.0,315.0,88.0,96.0,51.0,48.0,52.0,96.0,165.0,205.0,3
3.0,-1.0,3.0,14.0,25.0,42.0,32.0,7.0,-20.0,-35.0,4.0,12.0,23.0,40.0,66.0,-2.0,3
-287.0,-76.0,-16.0,24.0,118.0,288.0,653.0,475.0,147.0,170.0,25.0,25.0,27.0,66.0,196.0,399.0,3
-30.0,-41.0,-33.0,-37.0,-51.0,-69.0,-88.0,-73.0,-37.0,-39.0,-33.0,-33.0,-35.0,-44.0,-80.0,-46.0,3
-528.0,-177.0,-123.0,-48.0,27.0,312.0,981.0,665.0,146.0,202.0,-13.0,-32.0,-33.0,-22.0,87.0,107.0,3
916.0,307.0,204.0,74.0,-70.0,-575.0,-1961.0,-1899.0,49.0,46.0,52.0,43.0,50.0,42.0,-5.0,-175.0,3
114.0,33.0,21.0,4.0,-28.0,-101.0,-344.0,-236.0,-78.0,-107.0,-11.0,-12.0,-13.0,-38.0,-77.0,-132.0,3
-43.0,-30.0,-22.0,-16.0,-13.0,-10.0,-5.0,-1.0,-15.0,-16.0,-12.0,-12.0,-12.0,-19.0,3.0,-1.0,3
18.0,19.0,15.0,14.0,13.0,18.0,51.0,55.0,15.0,14.0,8.0,9.0,10.0,17.0,51.0,28.0,3
157.0,74.0,59.0,50.0,28.0,-46.0,-318.0,-250.0,-74.0,-103.0,29.0,17.0,24.0,10.0,-78.0,-542.0,3
-93.0,-29.0,-15.0,7.0,26.0,59.0,76.0,25.0,-51.0,-57.0,-5.0,-4.0,-9.0,-35.0,-107.0,-126.0,3
-852.0,-156.0,-58.0,94.0,244.0,775.0,1953.0,1934.0,78.0,66.0,77.0,68.0,78.0,91.0,93.0,104.0,3
39.0,66.0,66.0,77.0,66.0,59.0,65.0,87.0,-6.0,-27.0,51.0,53.0,55.0,27.0,1.0,-172.0,3
6.0,3.0,-2.0,-4.0,-6.0,-7.0,-3.0,-11.0,3.0,1.0,0.0,0.0,0.0,6.0,27.0,23.0,3
66.0,56.0,53.0,57.0,54.0,43.0,49.0,78.0,32.0,29.0,33.0,41.0,47.0,55.0,59.0,29.0,3
151.0,96.0,82.0,70.0,62.0,29.0,-135.0,-142.0,43.0,15.0,54.0,56.0,61.0,55.0,66.0,-5.0,3
67.0,55.0,32.0,37.0,35.0,17.0,-71.0,-84.0,47.0,57.0,15.0,15.0,14.0,38.0,54.0,160.0,3
-21.0,-7.0,-5.0,1.0,-1.0,-1.0,6.0,-1.0,1.0,0.0,-1.0,-1.0,0.0,3.0,27.0,18.0,3
-30.0,-6.0,0.0,-2.0,-1.0,21.0,75.0,58.0,60.0,71.0,4.0,5.0,6.0,12.0,34.0,138.0,3
-47.0,-36.0,-33.0,-25.0,-28.0,-35.0,-34.0,-30.0,-29.0,-27.0,-22.0,-26.0,-28.0,-28.0,18.0,13.0,3
-21.0,17.0,15.0,20.0,25.0,37.0,58.0,48.0,58.0,53.0,13.0,17.0,20.0,29.0,53.0,120.0,3
71.0,49.0,39.0,46.0,46.0,39.0,-18.0,-1.0,-65.0,-97.0,17.0,17.0,17.0,4.0,-41.0,-98.0,3
-7.0,-8.0,-8.0,-9.0,-10.0,-11.0,-14.0,-27.0,-14.0,-11.0,-8.0,-8.0,-6.0,-2.0,22.0,13.0,3
-16.0,-17.0,-14.0,-13.0,-9.0,-6.0,-8.0,-10.0,-11.0,-11.0,-9.0,-8.0,-4.0,-1.0,-18.0,-29.0,3
-22.0,-21.0,-19.0,-22.0,-30.0,-42.0,8.0,-3.0,-3.0,-10.0,-16.0,-16.0,-21.0,-35.0,-12.0,17.0,3
39.0,6.0,3.0,-4.0,-19.0,-43.0,-140.0,-94.0,-3.0,-1.0,-5.0,-5.0,-9.0,-23.0,-46.0,-14.0,3
24.0,1.0,-5.0,-12.0,-25.0,-43.0,-58.0,-42.0,-1.0,-3.0,-8.0,-7.0,-10.0,-15.0,-40.0,-38.0,3
29.0,23.0,20.0,16.0,22.0,7.0,-103.0,-93.0,5.0,10.0,10.0,6.0,1.0,-3.0,-30.0,-46.0,3
109.0,33.0,21.0,13.0,3.0,-41.0,-207.0,-220.0,-101.0,-132.0,-2.0,1.0,2.0,13.0,-2.0,-77.0,3
5.0,0.0,0.0,4.0,-14.0,-40.0,-91.0,-50.0,-93.0,-118.0,-10.0,-11.0,-5.0,-29.0,-80.0,-237.0,3
-54.0,-3.0,-2.0,8.0,7.0,36.0,107.0,106.0,-21.0,-27.0,11.0,3.0,6.0,15.0,27.0,89.0,3
185.0,69.0,50.0,35.0,13.0,-88.0,-337.0,-320.0,-13.0,-17.0,17.0,23.0,27.0,25.0,-14.0,-109.0,3
4.0,10.0,5.0,5.0,5.0,10.0,3.0,17.0,14.0,12.0,-1.0,1.0,-1.0,-2.0,29.0,22.0,3
-60.0,-17.0,-14.0,-3.0,12.0,55.0,246.0,190.0,3.0,5.0,-1.0,-4.0,0.0,11.0,40.0,27.0,3
-16.0,-6.0,-3.0,5.0,-4.0,-32.0,-67.0,-69.0,9.0,7.0,-1.0,-7.0,-12.0,-16.0,-15.0,-18.0,3
16.0,20.0,19.0,21.0,17.0,9.0,10.0,22.0,13.0,15.0,15.0,20.0,23.0,28.0,35.0,0.0,3
