0,1,2,3,4,5,6,7,8,9,10,11,12,13,14,15,16
-6.0,-13.0,-13.0,-14.0,-13.0,-5.0,1.0,13.0,-9.0,-9.0,-10.0,-10.0,-9.0,-14.0,-13.0,-16.0,3
3.0,3.0,5.0,11.0,29.0,13.0,-34.0,19.0,4.0,6.0,10.0,16.0,23.0,21.0,16.0,8.0,3
-51.0,-47.0,-31.0,-26.0,-13.0,-81.0,-246.0,-621.0,23.0,-31.0,-26.0,-20.0,-14.0,-17.0,-37.0,-90.0,3
128.0,99.0,60.0,42.0,6.0,17.0,80.0,525.0,-288.0,65.0,43.0,29.0,19.0,94.0,262.0,645.0,3
8.0,11.0,8.0,9.0,16.0,-1.0,-7.0,4.0,6.0,8.0,9.0,12.0,21.0,15.0,5.0,8.0,3
-17.0,-15.0,0.0,0.0,-3.0,-8.0,-130.0,-721.0,64.0,-2.0,3.0,8.0,23.0,36.0,3.0,-56.0,3
-63.0,-18.0,0.0,-4.0,-32.0,-89.0,-349.0,-484.0,48.0,-14.0,-10.0,-13.0,-16.0,-18.0,-2.0,-121.0,3
-10.0,-8.0,-2.0,-3.0,-30.0,-47.0,-90.0,-419.0,19.0,-3.0,-2.0,-7.0,-19.0,-19.0,-18.0,-43.0,3
-9.0,-4.0,-5.0,-5.0,-6.0,-3.0,-22.0,125.0,-9.0,-7.0,-9.0,-9.0,-9.0,-3.0,16.0,5.0,3
-38.0,-14.0,-12.0,-10.0,-7.0,5.0,19.0,100.0,-33.0,-12.0,-12.0,-11.0,-14.0,5.0,9.0,20.0,3
-1.0,14.0,15.0,11.0,-37.0,-213.0,-743.0,-1915.0,-60.0,-5.0,5.0,2.0,-5.0,-20.0,-12.0,-30.0,3
-70.0,-61.0,-30.0,-25.0,-27.0,-103.0,-185.0,-636.0,35.0,-37.0,-32.0,-39.0,-47.0,-58.0,-95.0,-155.0,3
1.0,0.0,-4.0,-1.0,-2.0,23.0,25.0,15.0,3.0,0.0,1.0,4.0,12.0,23.0,27.0,11.0,3
-12.0,-15.0,-20.0,-18.0,-7.0,-12.0,3.0,10.0,-9.0,-17.0,-18.0,-15.0,-8.0,-6.0,1.0,8.0,3
25.0,27.0,29.0,34.0,48.0,38.0,-32.0,-144.0,29.0,23.0,25.0,27.0,27.0,-13.0,-64.0,-36.0,3
-12.0,-10.0,-10.0,-8.0,-4.0,-25.0,-30.0,-8.0,-8.0,-8.0,-8.0,-6.0,-3.0,-41.0,-44.0,-15.0,3
22.0,25.0,23.0,21.0,12.0,-21.0,-55.0,64.0,19.0,23.0,22.0,17.0,10.0,12.0,19.0,13.0,3
14.0,16.0,12.0,10.0,7.0,-16.0,-15.0,23.0,14.0,12.0,8.0,6.0,7.0,9.0,7.0,22.0,3
-27.0,-25.0,-15.0,-24.0,-60.0,-136.0,-348.0,-1487.0,298.0,-24.0,-20.0,-29.0,-39.0,-103.0,-197.0,-412.0,3
-11.0,-5.0,-5.0,-12.0,-34.0,-74.0,-171.0,-540.0,-14.0,-6.0,-7.0,-13.0,-19.0,-23.0,-23.0,-22.0,3
-28.0,-28.0,-28.0,-26.0,-11.0,289.0,869.0,1918.0,-258.0,-14.0,-19.0,-21.0,-19.0,63.0,177.0,248.0,3
12.0,9.0,8.0,11.0,31.0,6.0,-35.0,27.0,13.0,7.0,8.0,17.0,38.0,87.0,75.0,39.0,3
-28.0,-7.0,8.0,6.0,-2.0,-33.0,-135.0,-755.0,43.0,-3.0,1.0,-2.0,-7.0,-17.0,-18.0,-77.0,3
28.0,24.0,21.0,20.0,21.0,36.0,34.0,55.0,21.0,17.0,15.0,15.0,16.0,19.0,24.0,31.0,3
6.0,7.0,7.0,13.0,14.0,15.0,2.0,29.0,6.0,3.0,5.0,7.0,3.0,1.0,26.0,21.0,3
15.0,20.0,22.0,20.0,-2.0,9.0,21.0,19.0,15.0,19.0,20.0,20.0,23.0,23.0,14.0,12.0,3
-74.0,-35.0,-39.0,-43.0,-49.0,-137.0,-332.0,-330.0,43.0,-40.0,-41.0,-44.0,-48.0,-88.0,-147.0,-186.0,3
20.0,22.0,15.0,6.0,10.0,35.0,98.0,82.0,109.0,14.0,2.0,-3.0,-1.0,-22.0,-26.0,-45.0,3
28.0,25.0,25.0,22.0,20.0,35.0,41.0,39.0,25.0,23.0,21.0,14.0,5.0,23.0,22.0,31.0,3
-3.0,-4.0,-4.0,-1.0,14.0,20.0,-1.0,7.0,-7.0,-5.0,-6.0,-1.0,6.0,5.0,-17.0,-15.0,3
-7.0,-8.0,-11.0,-10.0,3.0,-23.0,-11.0,45.0,-13.0,-10.0,-10.0,-5.0,5.0,15.0,-15.0,-26.0,3
-35.0,-38.0,-32.0,-48.0,-85.0,-215.0,-380.0,-560.0,14.0,-27.0,-36.0,-50.0,-64.0,-73.0,-96.0,-97.0,3
-5.0,-10.0,1.0,8.0,23.0,53.0,8.0,-526.0,27.0,1.0,6.0,8.0,10.0,-3.0,-51.0,-35.0,3
-51.0,5.0,-4.0,0.0,12.0,39.0,0.0,1025.0,3.0,-6.0,-5.0,-1.0,7.0,-4.0,-33.0,-37.0,3
10.0,3.0,1.0,-2.0,-10.0,-25.0,-90.0,4.0,8.0,5.0,2.0,0.0,4.0,32.0,31.0,8.0,3
-1.0,-1.0,17.0,10.0,-36.0,-221.0,-741.0,-1856.0,-45.0,-2.0,12.0,9.0,1.0,-6.0,-6.0,-34.0,3
1.0,-8.0,-1.0,-1.0,-1.0,-4.0,-15.0,-231.0,3.0,2.0,3.0,3.0,2.0,2.0,8.0,7.0,3
24.0,22.0,19.0,18.0,23.0,65.0,172.0,531.0,160.0,22.0,19.0,19.0,18.0,-3.0,-22.0,-49.0,3
-1.0,-2.0,0.0,2.0,7.0,10.0,19.0,33.0,-7.0,-3.0,-3.0,-1.0,-3.0,7.0,6.0,-6.0,3
-22.0,1.0,-12.0,4.0,69.0,191.0,884.0,1961.0,-215.0,4.0,-2.0,7.0,19.0,64.0,100.0,292.0,3
8.0,0.0,4.0,7.0,21.0,43.0,97.0,-364.0,23.0,4.0,5.0,11.0,25.0,40.0,25.0,10.0,3
-9.0,-12.0,-11.0,-5.0,12.0,7.0,-11.0,45.0,-3.0,-6.0,-4.0,2.0,13.0,36.0,14.0,8.0,3
12.0,11.0,17.0,19.0,15.0,44.0,-28.0,-362.0,56.0,18.0,19.0,15.0,2.0,-6.0,-6.0,-11.0,3
-80.0,-30.0,-37.0,-22.0,19.0,-22.0,-136.0,132.0,46.0,-35.0,-31.0,-21.0,-6.0,-20.0,-65.0,-109.0,3
-27.0,3.0,12.0,8.0,0.0,-33.0,-244.0,-700.0,85.0,1.0,1.0,-2.0,-5.0,-9.0,-45.0,-118.0,3
-6.0,-2.0,-2.0,-5.0,-10.0,2.0,12.0,-2.0,-9.0,-7.0,-9.0,-13.0,-16.0,-17.0,-22.0,-13.0,3
-25.0,-18.0,-14.0,-3.0,27.0,21.0,-11.0,-53.0,-18.0,-12.0,-5.0,6.0,19.0,5.0,-39.0,-47.0,3
-47.0,4.0,10.0,12.0,0.0,-34.0,-200.0,-444.0,84.0,-1.0,10.0,14.0,19.0,-5.0,-32.0,-123.0,3
-133.0,-119.0,-112.0,-118.0,-155.0,-162.0,-158.0,-257.0,-139.0,-113.0,-103.0,-103.0,-109.0,-132.0,-95.0,-165.0,3
-8.0,-10.0,-7.0,-6.0,-8.0,-16.0,-52.0,-186.0,-10.0,-8.0,-8.0,-7.0,-8.0,-12.0,-11.0,-10.0,3
2.0,7.0,7.0,8.0,20.0,2.0,17.0,29.0,2.0,3.0,2.0,7.0,15.0,20.0,9.0,6.0,3
-22.0,28.0,28.0,30.0,51.0,58.0,111.0,312.0,95.0,27.0,31.0,34.0,43.0,60.0,31.0,-66.0,3
-19.0,-4.0,3.0,1.0,-10.0,-52.0,-177.0,-612.0,62.0,0.0,4.0,3.0,0.0,-9.0,-27.0,-77.0,3
45.0,27.0,8.0,10.0,50.0,234.0,886.0,1929.0,-223.0,36.0,22.0,28.0,38.0,71.0,96.0,319.0,3
14.0,-1.0,21.0,24.0,22.0,15.0,-7.0,-77.0,13.0,21.0,18.0,19.0,19.0,17.0,19.0,18.0,3
12.0,16.0,17.0,23.0,33.0,21.0,37.0,44.0,6.0,12.0,15.0,24.0,35.0,6.0,-20.0,-6.0,3
-35.0,19.0,13.0,16.0,26.0,21.0,42.0,409.0,54.0,7.0,12.0,8.0,3.0,19.0,18.0,-72.0,3
-2.0,-3.0,4.0,3.0,1.0,26.0,21.0,13.0,0.0,0.0,1.0,1.0,2.0,10.0,23.0,25.0,3
-79.0,-64.0,-43.0,-49.0,-69.0,-135.0,-296.0,-514.0,-25.0,-49.0,-45.0,-54.0,-65.0,-59.0,-50.0,-108.0,3
2.0,6.0,5.0,6.0,0.0,2.0,23.0,6.0,104.0,6.0,6.0,5.0,2.0,-17.0,-35.0,-109.0,3
6.0,11.0,7.0,-8.0,-70.0,-35.0,-52.0,-194.0,11.0,9.0,4.0,-6.0,-18.0,-4.0,-5.0,-14.0,3
-1.0,-2.0,-4.0,-1.0,4.0,15.0,0.0,34.0,-6.0,-7.0,-6.0,-1.0,6.0,1.0,-9.0,-13.0,3
3.0,4.0,5.0,14.0,39.0,62.0,19.0,79.0,1.0,5.0,8.0,15.0,25.0,8.0,-24.0,-13.0,3
21.0,17.0,18.0,14.0,8.0,10.0,28.0,30.0,18.0,17.0,15.0,10.0,1.0,-7.0,4.0,21.0,3
-8.0,-12.0,-14.0,-7.0,11.0,-15.0,-32.0,259.0,-4.0,-7.0,-4.0,4.0,15.0,23.0,2.0,-17.0,3
2.0,1.0,4.0,6.0,10.0,24.0,41.0,0.0,3.0,5.0,6.0,10.0,13.0,8.0,11.0,7.0,3
-5.0,-3.0,0.0,2.0,0.0,-21.0,-20.0,-78.0,93.0,0.0,2.0,5.0,8.0,-7.0,-23.0,-85.0,3
11.0,6.0,7.0,8.0,23.0,-6.0,-4.0,-342.0,17.0,6.0,8.0,11.0,19.0,7.0,-14.0,-19.0,3
26.0,25.0,25.0,23.0,10.0,-15.0,51.0,-298.0,31.0,21.0,25.0,27.0,34.0,53.0,37.0,34.0,3
-12.0,29.0,35.0,64.0,148.0,224.0,398.0,1721.0,17.0,33.0,41.0,66.0,97.0,103.0,18.0,5.0,3
-22.0,-5.0,-20.0,-13.0,8.0,38.0,209.0,818.0,-347.0,2.0,-9.0,4.0,38.0,147.0,252.0,544.0,3
-11.0,-3.0,-2.0,1.0,2.0,-34.0,-74.0,-209.0,-3.0,-4.0,0.0,2.0,5.0,-6.0,-13.0,-28.0,3
12.0,15.0,11.0,4.0,-21.0,2.0,21.0,-2.0,10.0,13.0,12.0,6.0,-6.0,-14.0,-10.0,8.0,3
-6.0,-1.0,-2.0,-4.0,-24.0,-58.0,-101.0,78.0,-5.0,-2.0,-2.0,-3.0,0.0,-10.0,-10.0,7.0,3
-77.0,-62.0,-52.0,-54.0,-75.0,-187.0,-312.0,-736.0,33.0,-50.0,-48.0,-52.0,-55.0,-56.0,-50.0,-124.0,3
-8.0,-3.0,-6.0,-13.0,-29.0,-54.0,-27.0,116.0,-10.0,-5.0,-9.0,-16.0,-23.0,-4.0,12.0,-17.0,3
-15.0,-12.0,-12.0,-14.0,-18.0,-21.0,-51.0,37.0,-10.0,-9.0,-9.0,-10.0,-12.0,-39.0,-41.0,-11.0,3
-18.0,-23.0,-27.0,-41.0,-84.0,-65.0,-39.0,3.0,-15.0,-24.0,-32.0,-47.0,-73.0,-99.0,-79.0,-53.0,3
2.0,-2.0,-6.0,-8.0,-9.0,-54.0,-31.0,80.0,-3.0,-2.0,-2.0,0.0,5.0,7.0,14.0,19.0,3
29.0,29.0,27.0,29.0,29.0,39.0,27.0,26.0,26.0,24.0,23.0,24.0,19.0,24.0,34.0,33.0,3
-5.0,1.0,2.0,2.0,-2.0,-11.0,-10.0,-10.0,-5.0,-1.0,0.0,1.0,3.0,9.0,-4.0,-7.0,3
-27.0,19.0,9.0,2.0,5.0,161.0,593.0,1865.0,-115.0,14.0,5.0,-2.0,-13.0,-12.0,37.0,134.0,3
-2.0,-3.0,-7.0,-4.0,5.0,5.0,32.0,37.0,-5.0,-5.0,-6.0,-7.0,-8.0,-3.0,-5.0,4.0,3
17.0,14.0,16.0,14.0,6.0,-3.0,-6.0,6.0,15.0,14.0,15.0,15.0,13.0,21.0,20.0,15.0,3
-36.0,-30.0,-16.0,-8.0,12.0,182.0,64.0,-840.0,79.0,-17.0,-16.0,-14.0,-9.0,-25.0,-46.0,-90.0,3
12.0,15.0,14.0,10.0,4.0,-1.0,24.0,4.0,11.0,12.0,13.0,13.0,16.0,12.0,8.0,19.0,3
29.0,28.0,27.0,33.0,61.0,93.0,182.0,586.0,29.0,23.0,25.0,31.0,37.0,36.0,32.0,32.0,3
7.0,9.0,8.0,10.0,14.0,42.0,34.0,-63.0,75.0,5.0,6.0,8.0,12.0,1.0,-24.0,-64.0,3
-3.0,0.0,-2.0,-3.0,-2.0,-3.0,-3.0,21.0,-5.0,-3.0,-4.0,-3.0,-3.0,-14.0,-9.0,-4.0,3
-3.0,-6.0,-1.0,-6.0,-12.0,-38.0,-111.0,-363.0,23.0,1.0,-1.0,-5.0,-2.0,-5.0,-45.0,-41.0,3
-67.0,-6.0,-23.0,-32.0,-74.0,-78.0,-128.0,204.0,53.0,-20.0,-18.0,-24.0,-34.0,-54.0,-58.0,-108.0,3
-27.0,-22.0,-22.0,-18.0,1.0,-3.0,-32.0,-186.0,-20.0,-21.0,-21.0,-18.0,-15.0,1.0,-22.0,-61.0,3
-60.0,-45.0,-24.0,-16.0,-10.0,-12.0,-171.0,-702.0,47.0,-28.0,-21.0,-16.0,-10.0,-2.0,-27.0,-104.0,3
21.0,12.0,12.0,-1.0,-36.0,-11.0,-14.0,-201.0,32.0,12.0,6.0,-7.0,-25.0,0.0,50.0,21.0,3
-190.0,-1.0,-10.0,-12.0,-11.0,32.0,149.0,704.0,-22.0,-7.0,-9.0,-10.0,-9.0,-12.0,14.0,72.0,3
-2.0,0.0,0.0,1.0,2.0,-18.0,-71.0,-95.0,14.0,4.0,5.0,7.0,17.0,42.0,31.0,29.0,3
-60.0,-20.0,-31.0,-27.0,22.0,147.0,508.0,1861.0,-126.0,-16.0,-24.0,-27.0,-41.0,5.0,83.0,143.0,3
3.0,9.0,9.0,10.0,12.0,8.0,6.0,39.0,4.0,9.0,12.0,14.0,16.0,30.0,12.0,2.0,3
16.0,14.0,15.0,11.0,3.0,-35.0,-93.0,14.0,17.0,16.0,14.0,12.0,11.0,25.0,30.0,17.0,3
-10.0,43.0,53.0,50.0,26.0,-37.0,-256.0,-134.0,119.0,33.0,34.0,29.0,25.0,57.0,43.0,-64.0,3
-8.0,-9.0,-10.0,-9.0,-4.0,4.0,16.0,27.0,-9.0,-8.0,-7.0,-7.0,-2.0,1.0,6.0,8.0,3
-11.0,-11.0,-6.0,1.0,12.0,27.0,32.0,2.0,-7.0,-5.0,0.0,4.0,9.0,4.0,3.0,2.0,3
-12.0,-11.0,-8.0,-7.0,-6.0,31.0,44.0,29.0,-10.0,-9.0,-6.0,-4.0,-1.0,4.0,28.0,6.0,3
-6.0,-6.0,-5.0,-5.0,-10.0,-26.0,-18.0,-13.0,-6.0,-3.0,-2.0,1.0,6.0,-21.0,-20.0,-23.0,3
14.0,22.0,27.0,16.0,-7.0,18.0,0.0,-256.0,24.0,21.0,23.0,25.0,31.0,51.0,25.0,11.0,3
-58.0,32.0,24.0,21.0,19.0,35.0,91.0,68.0,113.0,20.0,18.0,17.0,14.0,-14.0,-16.0,-23.0,3
-18.0,-6.0,-3.0,-1.0,7.0,-11.0,-52.0,40.0,-22.0,-6.0,-1.0,1.0,4.0,-10.0,-36.0,-48.0,3
-7.0,3.0,2.0,1.0,5.0,2.0,31.0,140.0,-312.0,-1.0,-1.0,0.0,4.0,46.0,139.0,373.0,3
-16.0,-12.0,-13.0,-18.0,-30.0,-51.0,-92.0,-195.0,-7.0,-12.0,-14.0,-21.0,-28.0,-36.0,-39.0,-45.0,3
122.0,-14.0,-27.0,-26.0,-16.0,9.0,93.0,423.0,-105.0,-18.0,-21.0,-21.0,-20.0,-12.0,2.0,68.0,3
4.0,3.0,-2.0,-4.0,-11.0,5.0,-16.0,-29.0,2.0,0.0,-4.0,-9.0,-22.0,-40.0,-39.0,-33.0,3
14.0,21.0,24.0,29.0,41.0,39.0,43.0,-56.0,9.0,16.0,17.0,14.0,9.0,9.0,-2.0,-37.0,3
-73.0,-43.0,-44.0,-43.0,-19.0,80.0,403.0,1714.0,-53.0,-34.0,-36.0,-39.0,-44.0,-85.0,-86.0,-38.0,3
29.0,40.0,34.0,20.0,-23.0,12.0,33.0,-2.0,25.0,27.0,21.0,10.0,-4.0,-1.0,3.0,21.0,3
-14.0,-14.0,-8.0,-12.0,-14.0,23.0,63.0,-502.0,-1.0,-10.0,-8.0,-14.0,-27.0,-72.0,-73.0,-53.0,3
-5.0,3.0,3.0,3.0,-9.0,-2.0,-6.0,2.0,-5.0,-3.0,-2.0,-2.0,-4.0,-44.0,-56.0,-26.0,3
6.0,4.0,1.0,1.0,3.0,21.0,28.0,32.0,4.0,3.0,3.0,0.0,-5.0,-4.0,-9.0,6.0,3
-35.0,-22.0,-17.0,-26.0,-66.0,-60.0,-246.0,-606.0,65.0,-17.0,-20.0,-33.0,-58.0,-55.0,-75.0,-136.0,3
9.0,3.0,0.0,-8.0,-22.0,-3.0,9.0,9.0,5.0,4.0,0.0,-6.0,-11.0,-12.0,-21.0,-3.0,3
19.0,23.0,22.0,21.0,29.0,38.0,42.0,28.0,18.0,15.0,14.0,19.0,28.0,48.0,60.0,46.0,3
-14.0,-18.0,-18.0,-20.0,-31.0,-33.0,-23.0,-15.0,-21.0,-15.0,-15.0,-18.0,-24.0,-42.0,-20.0,-18.0,3
-113.0,-58.0,-58.0,-79.0,-155.0,-250.0,-427.0,-274.0,-2.0,-60.0,-62.0,-85.0,-118.0,-225.0,-255.0,-239.0,3
27.0,41.0,42.0,14.0,-62.0,-47.0,-49.0,-352.0,56.0,38.0,28.0,3.0,-29.0,-43.0,-56.0,-3.0,3
7.0,9.0,14.0,10.0,6.0,-11.0,-16.0,-338.0,27.0,8.0,7.0,4.0,-3.0,-54.0,-90.0,-50.0,3
-17.0,-12.0,-13.0,-19.0,-41.0,-100.0,-247.0,-586.0,-15.0,-14.0,-17.0,-21.0,-24.0,-14.0,-17.0,-30.0,3
-17.0,-17.0,-18.0,-18.0,-26.0,-38.0,-18.0,-93.0,-14.0,-20.0,-21.0,-20.0,-18.0,-16.0,-20.0,-37.0,3
8.0,5.0,7.0,6.0,8.0,7.0,10.0,13.0,10.0,9.0,9.0,8.0,10.0,21.0,21.0,13.0,3
30.0,32.0,26.0,24.0,25.0,45.0,120.0,211.0,118.0,26.0,25.0,23.0,20.0,-7.0,-10.0,-24.0,3
18.0,15.0,14.0,10.0,10.0,6.0,1.0,12.0,13.0,12.0,10.0,8.0,7.0,11.0,10.0,18.0,3
4.0,8.0,7.0,2.0,-6.0,1.0,-2.0,0.0,3.0,4.0,2.0,0.0,-7.0,1.0,21.0,25.0,3
-13.0,-7.0,-6.0,3.0,33.0,20.0,24.0,-103.0,-7.0,-8.0,-4.0,3.0,10.0,-12.0,-31.0,-25.0,3
-53.0,-41.0,-26.0,-22.0,1.0,-54.0,-229.0,-773.0,47.0,-24.0,-22.0,-22.0,-26.0,-23.0,-36.0,-108.0,3
-46.0,-8.0,-4.0,-2.0,-12.0,27.0,-308.0,-68.0,66.0,-11.0,-8.0,-5.0,0.0,36.0,64.0,-33.0,3
8.0,10.0,20.0,28.0,90.0,341.0,821.0,1919.0,-169.0,25.0,23.0,29.0,37.0,29.0,43.0,191.0,3
-114.0,-97.0,-84.0,-76.0,-58.0,-140.0,-210.0,-656.0,-37.0,-82.0,-73.0,-63.0,-46.0,-80.0,-78.0,-143.0,3
21.0,17.0,19.0,23.0,36.0,25.0,49.0,50.0,20.0,18.0,19.0,29.0,43.0,57.0,47.0,34.0,3
33.0,32.0,40.0,34.0,0.0,-76.0,-260.0,-1485.0,354.0,31.0,33.0,28.0,17.0,-51.0,-128.0,-324.0,3
-62.0,-65.0,-52.0,-54.0,-48.0,-80.0,-186.0,-417.0,-13.0,-52.0,-52.0,-53.0,-51.0,-57.0,-59.0,-79.0,3
-17.0,-17.0,-19.0,-20.0,-39.0,-53.0,-35.0,-30.0,-16.0,-14.0,-12.0,-11.0,-9.0,-18.0,-12.0,-19.0,3
24.0,14.0,11.0,12.0,21.0,17.0,63.0,62.0,21.0,15.0,13.0,17.0,23.0,27.0,39.0,31.0,3
-24.0,-16.0,-13.0,-15.0,-31.0,-8.0,74.0,-363.0,-9.0,-17.0,-13.0,-12.0,-12.0,27.0,38.0,-11.0,3
6.0,-5.0,-3.0,-6.0,-8.0,-10.0,80.0,-270.0,3.0,0.0,-1.0,-2.0,-6.0,-40.0,-47.0,-21.0,3
26.0,24.0,22.0,18.0,8.0,21.0,39.0,66.0,21.0,19.0,15.0,11.0,4.0,4.0,1.0,4.0,3
-5.0,-2.0,7.0,4.0,-15.0,-54.0,-115.0,-474.0,30.0,3.0,4.0,2.0,2.0,6.0,-4.0,-37.0,3
-5.0,-10.0,-13.0,-16.0,-21.0,7.0,57.0,32.0,-6.0,-8.0,-8.0,-7.0,1.0,13.0,21.0,12.0,3
-21.0,-18.0,-18.0,-19.0,-16.0,-5.0,-12.0,-209.0,-8.0,-20.0,-21.0,-22.0,-25.0,-5.0,-1.0,-14.0,3
193.0,-16.0,-23.0,-20.0,-8.0,18.0,67.0,299.0,-96.0,-20.0,-21.0,-18.0,-13.0,5.0,16.0,46.0,3
-38.0,-43.0,-38.0,-38.0,-44.0,-5.0,-19.0,-529.0,-9.0,-32.0,-31.0,-33.0,-41.0,-69.0,-41.0,-30.0,3
16.0,6.0,0.0,0.0,6.0,-3.0,29.0,110.0,16.0,6.0,1.0,2.0,6.0,21.0,13.0,34.0,3
55.0,50.0,54.0,53.0,66.0,109.0,175.0,-273.0,69.0,49.0,46.0,54.0,70.0,106.0,99.0,89.0,3
-11.0,-18.0,-19.0,-19.0,-12.0,-20.0,-23.0,2.0,-8.0,-15.0,-16.0,-15.0,-10.0,-4.0,-17.0,-1.0,3
0.0,10.0,3.0,-1.0,44.0,267.0,778.0,1888.0,-219.0,13.0,1.0,-11.0,-22.0,64.0,96.0,228.0,3
-30.0,-20.0,-8.0,-18.0,-32.0,-92.0,-111.0,-631.0,0.0,-15.0,-15.0,-17.0,-18.0,-55.0,-99.0,-97.0,3
-27.0,-19.0,-18.0,-27.0,-51.0,-6.0,118.0,-473.0,-7.0,-22.0,-27.0,-41.0,-77.0,-166.0,-140.0,-107.0,3
14.0,19.0,8.0,6.0,19.0,69.0,226.0,774.0,-28.0,8.0,4.0,5.0,9.0,8.0,34.0,102.0,3
-23.0,-15.0,-13.0,-10.0,-4.0,-23.0,-38.0,-44.0,-13.0,-9.0,-6.0,-8.0,-12.0,-8.0,-5.0,3.0,3
-48.0,-39.0,-26.0,-13.0,16.0,-15.0,-188.0,-396.0,20.0,-20.0,-13.0,-5.0,1.0,-18.0,-14.0,-73.0,3
-26.0,12.0,2.0,-4.0,-17.0,17.0,119.0,1039.0,-299.0,9.0,-5.0,-4.0,5.0,101.0,197.0,398.0,3
23.0,19.0,20.0,21.0,25.0,29.0,3.0,43.0,21.0,19.0,19.0,16.0,7.0,24.0,33.0,27.0,3
-9.0,-3.0,-1.0,3.0,11.0,8.0,14.0,22.0,-7.0,-4.0,-4.0,0.0,1.0,10.0,15.0,7.0,3
12.0,-3.0,-23.0,-11.0,97.0,257.0,837.0,1916.0,-242.0,-1.0,-13.0,0.0,16.0,35.0,90.0,267.0,3
12.0,12.0,16.0,16.0,17.0,15.0,15.0,-50.0,13.0,11.0,12.0,13.0,14.0,16.0,12.0,11.0,3
-5.0,-6.0,-5.0,-4.0,2.0,0.0,-14.0,-4.0,-1.0,-2.0,-1.0,0.0,6.0,14.0,4.0,1.0,3
8.0,4.0,6.0,8.0,7.0,10.0,9.0,-18.0,8.0,8.0,9.0,8.0,8.0,8.0,10.0,8.0,3
-13.0,-4.0,-4.0,-8.0,-16.0,-28.0,-30.0,26.0,-146.0,-5.0,-4.0,-5.0,-4.0,-4.0,25.0,78.0,3
5.0,-9.0,1.0,-18.0,-78.0,-24.0,-107.0,-429.0,30.0,-1.0,-8.0,-29.0,-59.0,-55.0,-61.0,-105.0,3
-74.0,-20.0,-20.0,-5.0,34.0,-41.0,-126.0,-51.0,55.0,-20.0,-10.0,6.0,27.0,-13.0,-63.0,-148.0,3
-14.0,-11.0,-9.0,-12.0,-22.0,-52.0,-56.0,-12.0,-14.0,-11.0,-12.0,-15.0,-19.0,-49.0,-69.0,-54.0,3
5.0,25.0,23.0,29.0,82.0,315.0,910.0,1900.0,-95.0,25.0,22.0,29.0,42.0,84.0,136.0,199.0,3
200.0,-18.0,-26.0,-24.0,-18.0,11.0,100.0,308.0,-93.0,-19.0,-21.0,-24.0,-26.0,-23.0,-13.0,49.0,3
-49.0,-40.0,-26.0,-24.0,-18.0,-56.0,-156.0,-811.0,25.0,-28.0,-25.0,-25.0,-24.0,-9.0,24.0,-44.0,3
-22.0,6.0,17.0,17.0,8.0,13.0,-154.0,-656.0,93.0,7.0,10.0,10.0,12.0,8.0,-37.0,-125.0,3
-6.0,9.0,8.0,28.0,64.0,78.0,284.0,1517.0,-300.0,21.0,25.0,50.0,92.0,228.0,296.0,443.0,3
6.0,2.0,1.0,3.0,0.0,-16.0,-27.0,13.0,3.0,4.0,4.0,6.0,10.0,7.0,-19.0,-32.0,3
-3.0,-7.0,-8.0,-5.0,10.0,-10.0,-14.0,12.0,-9.0,-6.0,-4.0,2.0,9.0,5.0,3.0,-3.0,3
7.0,9.0,8.0,6.0,-11.0,-33.0,-99.0,-658.0,259.0,5.0,-4.0,-9.0,-10.0,-61.0,-124.0,-276.0,3
-7.0,2.0,5.0,5.0,-6.0,-140.0,-816.0,-1964.0,-12.0,-1.0,1.0,0.0,0.0,0.0,-3.0,-18.0,3
0.0,10.0,9.0,15.0,32.0,4.0,-4.0,-29.0,1.0,5.0,9.0,18.0,27.0,25.0,12.0,3.0,3
13.0,13.0,14.0,17.0,26.0,17.0,31.0,32.0,11.0,12.0,13.0,17.0,25.0,50.0,59.0,39.0,3
33.0,31.0,31.0,29.0,25.0,8.0,25.0,53.0,21.0,25.0,23.0,17.0,10.0,14.0,19.0,8.0,3
-1.0,-6.0,-5.0,-6.0,-18.0,-45.0,-86.0,-174.0,13.0,-4.0,-4.0,-3.0,-3.0,-9.0,-10.0,0.0,3
-29.0,-18.0,-8.0,-5.0,-6.0,0.0,-54.0,-357.0,16.0,-12.0,-7.0,-5.0,-3.0,13.0,13.0,-12.0,3
-9.0,-4.0,-9.0,-24.0,-66.0,1.0,115.0,-71.0,-8.0,-10.0,-20.0,-44.0,-88.0,-134.0,-99.0,-56.0,3
14.0,20.0,25.0,30.0,46.0,40.0,-35.0,-275.0,14.0,19.0,25.0,29.0,38.0,50.0,33.0,10.0,3
-40.0,-12.0,2.0,-6.0,-19.0,-130.0,-345.0,-710.0,60.0,-4.0,-1.0,0.0,5.0,-16.0,-51.0,-103.0,3
-25.0,-22.0,-21.0,-23.0,-32.0,-53.0,-54.0,44.0,-23.0,-18.0,-16.0,-18.0,-18.0,-30.0,-40.0,-56.0,3
-4.0,-7.0,-8.0,-7.0,2.0,10.0,-7.0,-9.0,-8.0,-5.0,-6.0,-7.0,-13.0,-14.0,-16.0,-26.0,3
4.0,-13.0,-7.0,-6.0,7.0,-65.0,-146.0,-386.0,36.0,-1.0,-3.0,0.0,8.0,-3.0,-11.0,-33.0,3
-2.0,-27.0,13.0,15.0,-1.0,-165.0,-886.0,-1940.0,-12.0,8.0,11.0,12.0,10.0,-3.0,-1.0,-12.0,3
22.0,23.0,25.0,27.0,31.0,84.0,74.0,-118.0,23.0,17.0,22.0,28.0,39.0,31.0,11.0,10.0,3
24.0,25.0,25.0,23.0,33.0,1.0,-2.0,-144.0,28.0,21.0,18.0,18.0,18.0,5.0,19.0,10.0,3
-34.0,8.0,19.0,26.0,33.0,-59.0,-403.0,-178.0,71.0,7.0,15.0,23.0,34.0,-31.0,-130.0,-160.0,3
6.0,8.0,10.0,10.0,21.0,63.0,55.0,61.0,8.0,9.0,10.0,10.0,14.0,21.0,17.0,25.0,3
-2.0,-5.0,-4.0,-2.0,9.0,21.0,18.0,-99.0,41.0,-7.0,-6.0,-2.0,5.0,14.0,23.0,-30.0,3
-64.0,-37.0,-23.0,-42.0,-111.0,-229.0,-367.0,-768.0,42.0,-30.0,-32.0,-47.0,-72.0,-100.0,-90.0,-161.0,3
-67.0,-18.0,-17.0,-9.0,18.0,49.0,69.0,250.0,46.0,-20.0,-13.0,-3.0,17.0,21.0,-37.0,-112.0,3
13.0,12.0,12.0,8.0,-8.0,4.0,-20.0,119.0,8.0,8.0,6.0,3.0,0.0,12.0,25.0,11.0,3
-9.0,-8.0,-11.0,-8.0,1.0,1.0,-4.0,3.0,74.0,-6.0,-7.0,-3.0,3.0,7.0,-33.0,-93.0,3
0.0,-21.0,0.0,0.0,-1.0,-8.0,-12.0,-99.0,-5.0,-5.0,-2.0,0.0,0.0,-9.0,-16.0,-18.0,3
-7.0,10.0,21.0,12.0,-35.0,-45.0,-188.0,-386.0,51.0,14.0,12.0,-4.0,-41.0,-144.0,-178.0,-118.0,3
31.0,25.0,23.0,23.0,23.0,29.0,34.0,56.0,25.0,21.0,17.0,17.0,14.0,-1.0,-23.0,-9.0,3
22.0,-19.0,-20.0,-16.0,-12.0,21.0,61.0,175.0,-67.0,-17.0,-15.0,-12.0,-6.0,24.0,28.0,41.0,3
65.0,60.0,45.0,49.0,100.0,345.0,1069.0,1951.0,-196.0,57.0,50.0,58.0,67.0,164.0,248.0,435.0,3
-77.0,-45.0,-30.0,-28.0,-24.0,-65.0,-183.0,-400.0,31.0,-32.0,-28.0,-25.0,-23.0,-41.0,-52.0,-138.0,3
-20.0,-17.0,-17.0,-14.0,-18.0,-28.0,-4.0,-6.0,-18.0,-14.0,-10.0,-4.0,3.0,1.0,-14.0,-17.0,3
-5.0,-4.0,-6.0,-7.0,-30.0,-9.0,-11.0,-57.0,14.0,-3.0,-2.0,-4.0,-7.0,-14.0,-24.0,-28.0,3
-14.0,-5.0,-8.0,-15.0,-36.0,-50.0,-60.0,-33.0,-16.0,-6.0,-6.0,-14.0,-30.0,-86.0,-72.0,-37.0,3
2.0,19.0,17.0,2.0,-36.0,-58.0,-77.0,-144.0,2.0,8.0,6.0,-6.0,-21.0,-38.0,-60.0,-27.0,3
-6.0,-10.0,-8.0,-7.0,-9.0,-8.0,-9.0,-4.0,-10.0,-9.0,-11.0,-11.0,-12.0,-19.0,-11.0,-3.0,3
0.0,-6.0,-6.0,-10.0,-21.0,27.0,23.0,43.0,0.0,-5.0,-7.0,-8.0,-7.0,-1.0,6.0,6.0,3
-19.0,-24.0,-28.0,-33.0,-49.0,-56.0,-16.0,11.0,-27.0,-24.0,-27.0,-32.0,-33.0,-33.0,-57.0,-64.0,3
27.0,23.0,21.0,19.0,19.0,50.0,35.0,100.0,24.0,23.0,21.0,20.0,20.0,57.0,69.0,35.0,3
-82.0,-40.0,-53.0,-62.0,-76.0,-2.0,128.0,1062.0,-13.0,-43.0,-47.0,-52.0,-59.0,-58.0,-28.0,-40.0,3
5.0,6.0,10.0,12.0,16.0,21.0,-8.0,-8.0,11.0,6.0,5.0,3.0,0.0,12.0,25.0,33.0,3
-56.0,-62.0,-53.0,-60.0,-69.0,-24.0,-12.0,-983.0,0.0,-51.0,-53.0,-60.0,-67.0,-57.0,-62.0,-94.0,3
17.0,26.0,42.0,38.0,-8.0,-156.0,-532.0,-1816.0,319.0,22.0,33.0,31.0,22.0,-27.0,-145.0,-541.0,3
-12.0,-8.0,-8.0,-10.0,-19.0,-37.0,-36.0,-17.0,-12.0,-7.0,-4.0,-7.0,-15.0,-52.0,-37.0,-12.0,3
-71.0,-24.0,-34.0,-25.0,4.0,-8.0,-70.0,214.0,39.0,-36.0,-34.0,-31.0,-28.0,-32.0,-49.0,-107.0,3
25.0,18.0,17.0,16.0,7.0,17.0,-5.0,21.0,23.0,21.0,19.0,17.0,17.0,41.0,33.0,33.0,3
15.0,17.0,19.0,11.0,-8.0,-50.0,-157.0,-857.0,295.0,14.0,15.0,9.0,1.0,-52.0,-130.0,-303.0,3
-28.0,-25.0,-23.0,-24.0,-33.0,-33.0,-53.0,-135.0,48.0,-26.0,-26.0,-28.0,-37.0,-55.0,-63.0,-107.0,3
-9.0,-5.0,-2.0,1.0,17.0,23.0,-35.0,-19.0,-5.0,-1.0,2.0,5.0,4.0,19.0,25.0,5.0,3
35.0,25.0,21.0,21.0,34.0,66.0,72.0,78.0,30.0,21.0,17.0,17.0,16.0,28.0,56.0,38.0,3
175.0,135.0,98.0,111.0,152.0,145.0,157.0,365.0,-229.0,103.0,97.0,114.0,136.0,230.0,365.0,735.0,3
-127.0,-55.0,-52.0,-48.0,-91.0,-225.0,-525.0,109.0,2.0,-57.0,-47.0,-41.0,-29.0,-65.0,-103.0,-187.0,3
-22.0,-19.0,-12.0,-12.0,-18.0,-38.0,-46.0,-340.0,7.0,-17.0,-16.0,-14.0,-9.0,-35.0,-42.0,-85.0,3
16.0,13.0,8.0,7.0,15.0,50.0,23.0,76.0,14.0,12.0,13.0,10.0,8.0,6.0,3.0,15.0,3
18.0,17.0,16.0,12.0,0.0,14.0,49.0,51.0,17.0,16.0,14.0,15.0,17.0,15.0,14.0,29.0,3
-178.0,-23.0,-24.0,-24.0,-5.0,48.0,198.0,789.0,-124.0,-23.0,-23.0,-20.0,-17.0,-2.0,34.0,118.0,3
-85.0,-64.0,-64.0,-54.0,-12.0,52.0,237.0,864.0,-433.0,-47.0,-50.0,-39.0,-22.0,21.0,137.0,487.0,3
4.0,2.0,-2.0,-14.0,-53.0,-57.0,18.0,12.0,-3.0,-2.0,-8.0,-23.0,-51.0,-71.0,-31.0,-18.0,3
24.0,24.0,21.0,16.0,8.0,-13.0,-49.0,-72.0,25.0,19.0,15.0,12.0,7.0,12.0,37.0,32.0,3
10.0,8.0,6.0,7.0,12.0,19.0,-10.0,27.0,7.0,6.0,6.0,1.0,-9.0,-13.0,9.0,-3.0,3
-15.0,-14.0,-14.0,-11.0,-11.0,-39.0,-31.0,-8.0,-16.0,-14.0,-13.0,-11.0,-12.0,-30.0,-33.0,-25.0,3
4.0,1.0,2.0,2.0,-7.0,-43.0,-51.0,-34.0,2.0,5.0,5.0,8.0,13.0,-8.0,7.0,16.0,3
-33.0,-31.0,-31.0,-31.0,-32.0,-64.0,-116.0,-56.0,-31.0,-26.0,-26.0,-24.0,-25.0,-58.0,-80.0,-63.0,3
-10.0,-5.0,-5.0,0.0,19.0,16.0,-1.0,15.0,-9.0,-7.0,-5.0,-2.0,2.0,3.0,7.0,8.0,3
32.0,23.0,20.0,28.0,67.0,172.0,450.0,1488.0,23.0,17.0,20.0,30.0,42.0,58.0,62.0,31.0,3
2.0,7.0,7.0,4.0,-8.0,-28.0,-43.0,4.0,-4.0,2.0,1.0,-2.0,-9.0,-19.0,-14.0,-11.0,3
-29.0,8.0,16.0,20.0,29.0,-45.0,-213.0,-498.0,102.0,10.0,14.0,20.0,29.0,20.0,-20.0,-116.0,3
-45.0,4.0,8.0,4.0,-7.0,-176.0,-404.0,-242.0,84.0,3.0,7.0,6.0,8.0,-66.0,-187.0,-222.0,3
-44.0,-45.0,-39.0,-31.0,-6.0,11.0,5.0,-340.0,-26.0,-37.0,-30.0,-21.0,-6.0,10.0,-6.0,-40.0,3
41.0,39.0,50.0,43.0,12.0,-64.0,-273.0,-1515.0,456.0,39.0,39.0,35.0,25.0,-48.0,-154.0,-440.0,3
-32.0,5.0,17.0,26.0,43.0,18.0,-105.0,-549.0,105.0,8.0,16.0,21.0,29.0,13.0,-14.0,-91.0,3
-3.0,-21.0,-5.0,-5.0,-2.0,-1.0,6.0,-104.0,-7.0,-6.0,-4.0,-4.0,-6.0,-7.0,-11.0,-16.0,3
27.0,12.0,13.0,12.0,20.0,23.0,19.0,22.0,25.0,14.0,12.0,15.0,22.0,32.0,56.0,58.0,3
2.0,7.0,5.0,-2.0,-17.0,-20.0,-20.0,25.0,3.0,4.0,2.0,-2.0,-1.0,11.0,-3.0,3.0,3
17.0,33.0,32.0,34.0,94.0,305.0,559.0,1830.0,-65.0,35.0,32.0,39.0,45.0,15.0,-23.0,80.0,3
39.0,38.0,35.0,28.0,14.0,28.0,21.0,-164.0,39.0,29.0,23.0,17.0,8.0,-15.0,-11.0,8.0,3
-11.0,-4.0,-4.0,-3.0,0.0,-18.0,-10.0,29.0,-2.0,-8.0,-6.0,-5.0,-2.0,5.0,0.0,-13.0,3
-27.0,-7.0,4.0,-2.0,-14.0,-80.0,-142.0,-667.0,60.0,-4.0,-5.0,-4.0,2.0,-28.0,-69.0,-118.0,3
-12.0,0.0,4.0,1.0,-43.0,-217.0,-709.0,-1900.0,-14.0,1.0,3.0,1.0,-6.0,-8.0,-9.0,-19.0,3
11.0,9.0,13.0,22.0,42.0,-12.0,3.0,-446.0,34.0,11.0,16.0,31.0,54.0,51.0,40.0,-7.0,3
5.0,5.0,2.0,5.0,5.0,28.0,15.0,-10.0,3.0,0.0,0.0,3.0,4.0,-9.0,-8.0,-12.0,3
27.0,25.0,24.0,21.0,22.0,54.0,154.0,493.0,188.0,25.0,23.0,23.0,17.0,-25.0,-44.0,-80.0,3
-10.0,-23.0,17.0,13.0,-25.0,-235.0,-930.0,-1915.0,-32.0,-4.0,12.0,14.0,10.0,19.0,10.0,-8.0,3
-1.0,-3.0,0.0,3.0,11.0,27.0,24.0,-89.0,92.0,2.0,3.0,6.0,10.0,9.0,-13.0,-70.0,3
7.0,10.0,9.0,5.0,-9.0,10.0,75.0,20.0,6.0,8.0,7.0,3.0,3.0,-1.0,-16.0,-12.0,3
27.0,32.0,35.0,31.0,7.0,-58.0,-259.0,-988.0,178.0,23.0,29.0,25.0,24.0,1.0,-84.0,-502.0,3
-8.0,-10.0,-6.0,-8.0,-13.0,-54.0,-96.0,-25.0,-8.0,-5.0,-5.0,-11.0,-19.0,-34.0,-33.0,-19.0,3
-13.0,-25.0,-30.0,-30.0,-25.0,-10.0,65.0,5.0,-1.0,-18.0,-20.0,-21.0,-21.0,-64.0,-69.0,-3.0,3
-3.0,2.0,6.0,17.0,31.0,4.0,-54.0,65.0,2.0,3.0,10.0,23.0,38.0,15.0,-10.0,1.0,3
-31.0,-8.0,-6.0,-7.0,-15.0,-23.0,-16.0,103.0,-80.0,-6.0,-6.0,-8.0,-12.0,2.0,32.0,62.0,3
-32.0,-13.0,-9.0,-22.0,-61.0,-79.0,-23.0,-287.0,-32.0,-17.0,-17.0,-25.0,-37.0,-51.0,-56.0,-111.0,3
4.0,0.0,0.0,-5.0,-23.0,13.0,3.0,14.0,-3.0,-2.0,-4.0,-12.0,-29.0,-14.0,13.0,-15.0,3
24.0,16.0,13.0,19.0,40.0,16.0,1.0,-111.0,30.0,17.0,17.0,21.0,30.0,25.0,7.0,13.0,3
-36.0,-36.0,-12.0,-13.0,-27.0,-17.0,-118.0,-662.0,45.0,-18.0,-13.0,-14.0,-16.0,-14.0,-35.0,-109.0,3
-8.0,1.0,3.0,3.0,5.0,-16.0,-84.0,-239.0,14.0,0.0,3.0,2.0,1.0,24.0,4.0,-15.0,3
10.0,13.0,12.0,14.0,16.0,10.0,3.0,12.0,13.0,13.0,14.0,10.0,5.0,1.0,-9.0,9.0,3
-14.0,-16.0,-11.0,-9.0,-8.0,-10.0,0.0,2.0,-10.0,-9.0,-6.0,-4.0,-1.0,5.0,-10.0,-8.0,3
-6.0,-6.0,-4.0,3.0,19.0,-10.0,-22.0,-22.0,-6.0,-5.0,-4.0,7.0,23.0,35.0,15.0,1.0,3
-31.0,-26.0,-16.0,-20.0,-37.0,-66.0,-165.0,-747.0,55.0,-13.0,-13.0,-16.0,-20.0,-51.0,-83.0,-113.0,3
-25.0,-21.0,-4.0,-6.0,-7.0,-51.0,-169.0,-384.0,17.0,-9.0,-9.0,-11.0,-14.0,-19.0,-32.0,-66.0,3
-66.0,-43.0,-32.0,-38.0,-57.0,-119.0,-215.0,-711.0,47.0,-32.0,-31.0,-33.0,-37.0,-59.0,-87.0,-124.0,3
-17.0,-12.0,-3.0,-2.0,-7.0,-8.0,82.0,-389.0,-4.0,-11.0,-5.0,4.0,19.0,37.0,35.0,-13.0,3
-101.0,-88.0,-74.0,-77.0,-148.0,-302.0,-438.0,-607.0,-18.0,-66.0,-58.0,-53.0,-47.0,-107.0,-167.0,-199.0,3
12.0,13.0,14.0,12.0,2.0,-14.0,-35.0,11.0,9.0,12.0,14.0,11.0,5.0,8.0,13.0,6.0,3
-3.0,-3.0,-10.0,-12.0,-4.0,-18.0,-26.0,7.0,-7.0,-10.0,-13.0,-11.0,-6.0,-6.0,-7.0,-14.0,3
-58.0,5.0,-12.0,-14.0,5.0,-43.0,-31.0,374.0,57.0,-11.0,-11.0,-11.0,-14.0,-6.0,10.0,-52.0,3
1.0,-14.0,-16.0,-6.0,12.0,161.0,750.0,1964.0,-327.0,0.0,-5.0,6.0,21.0,53.0,142.0,405.0,3
-32.0,-21.0,-15.0,-16.0,-24.0,-163.0,-287.0,-485.0,13.0,-13.0,-11.0,-9.0,-6.0,-45.0,-72.0,-75.0,3
-15.0,-7.0,-7.0,-15.0,-39.0,-65.0,-64.0,-25.0,-11.0,-7.0,-9.0,-15.0,-22.0,-8.0,15.0,0.0,3
57.0,69.0,71.0,70.0,73.0,4.0,-67.0,40.0,48.0,55.0,54.0,57.0,63.0,72.0,36.0,29.0,3
-6.0,-7.0,-7.0,-14.0,-33.0,-23.0,-14.0,-28.0,-8.0,-6.0,-12.0,-19.0,-28.0,-32.0,-19.0,-13.0,3
-18.0,-17.0,-18.0,-18.0,-24.0,9.0,-15.0,-44.0,-19.0,-15.0,-15.0,-18.0,-19.0,-28.0,-65.0,-38.0,3
-56.0,-31.0,-26.0,-23.0,-17.0,-13.0,-94.0,-155.0,34.0,-26.0,-23.0,-24.0,-24.0,-18.0,-42.0,-134.0,3
12.0,2.0,-6.0,-4.0,26.0,33.0,25.0,-62.0,15.0,0.0,-7.0,-1.0,7.0,-15.0,-53.0,-47.0,3
6.0,6.0,6.0,6.0,14.0,2.0,14.0,-47.0,8.0,2.0,1.0,-1.0,-3.0,-5.0,-15.0,-13.0,3
-23.0,-20.0,-7.0,-25.0,-86.0,-19.0,-120.0,-371.0,25.0,-10.0,-13.0,-32.0,-57.0,-59.0,-27.0,-40.0,3
-8.0,-8.0,-7.0,-7.0,-6.0,0.0,3.0,-5.0,-9.0,-6.0,-6.0,-5.0,-5.0,-7.0,-10.0,-8.0,3
-10.0,-7.0,-11.0,-7.0,-3.0,33.0,39.0,-9.0,-8.0,-10.0,-7.0,-8.0,-22.0,-56.0,-43.0,-8.0,3
-15.0,-7.0,-6.0,4.0,57.0,268.0,865.0,1913.0,-215.0,9.0,9.0,24.0,60.0,194.0,202.0,306.0,3
-129.0,-62.0,-55.0,-62.0,-114.0,-124.0,-157.0,136.0,-17.0,-57.0,-52.0,-60.0,-75.0,-59.0,-39.0,-158.0,3
17.0,2.0,25.0,22.0,-24.0,-235.0,-874.0,-1895.0,8.0,8.0,17.0,15.0,8.0,0.0,-21.0,-359.0,3
-61.0,-56.0,-45.0,-52.0,-74.0,-84.0,-194.0,-822.0,11.0,-47.0,-52.0,-61.0,-71.0,-54.0,-83.0,-124.0,3
0.0,8.0,8.0,13.0,29.0,28.0,19.0,-11.0,-4.0,8.0,12.0,21.0,33.0,33.0,31.0,6.0,3
-18.0,-16.0,-18.0,-22.0,-25.0,-30.0,-33.0,-32.0,-17.0,-17.0,-18.0,-17.0,-17.0,-31.0,-36.0,-23.0,3
18.0,12.0,12.0,16.0,33.0,72.0,63.0,66.0,19.0,14.0,13.0,16.0,25.0,38.0,24.0,23.0,3
-37.0,-29.0,-32.0,-42.0,-67.0,-70.0,-45.0,-267.0,-32.0,-30.0,-33.0,-40.0,-50.0,-58.0,-79.0,-70.0,3
12.0,9.0,6.0,5.0,13.0,23.0,54.0,56.0,8.0,3.0,-1.0,-4.0,-10.0,-5.0,2.0,25.0,3
-1.0,-5.0,15.0,13.0,-9.0,-194.0,-925.0,-1944.0,-42.0,-3.0,11.0,12.0,11.0,3.0,4.0,-17.0,3
-6.0,1.0,1.0,3.0,4.0,-4.0,8.0,15.0,-34.0,0.0,0.0,3.0,5.0,15.0,39.0,9.0,3
-2.0,0.0,1.0,2.0,11.0,33.0,7.0,6.0,-6.0,0.0,2.0,0.0,-2.0,0.0,-15.0,-7.0,3
-39.0,-10.0,-8.0,-12.0,-19.0,-20.0,-39.0,69.0,-33.0,-8.0,-9.0,-13.0,-14.0,6.0,16.0,10.0,3
17.0,15.0,14.0,17.0,23.0,69.0,47.0,103.0,20.0,14.0,14.0,19.0,25.0,66.0,68.0,54.0,3
-30.0,-28.0,-27.0,-26.0,-27.0,-50.0,-62.0,-38.0,-27.0,-23.0,-21.0,-20.0,-22.0,-37.0,-37.0,-18.0,3
-1.0,-4.0,-6.0,2.0,29.0,33.0,2.0,17.0,0.0,-6.0,-4.0,4.0,17.0,33.0,36.0,17.0,3
-8.0,-9.0,-10.0,-2.0,32.0,46.0,46.0,25.0,-7.0,-9.0,-7.0,1.0,18.0,15.0,14.0,13.0,3
-15.0,-16.0,-16.0,-15.0,-13.0,-1.0,31.0,6.0,-17.0,-13.0,-12.0,-11.0,-6.0,3.0,-4.0,-13.0,3
-21.0,-17.0,-8.0,-10.0,-16.0,-29.0,-30.0,-497.0,-7.0,-15.0,-12.0,-14.0,-12.0,8.0,0.0,-23.0,3
4.0,3.0,0.0,-3.0,-11.0,17.0,37.0,37.0,-3.0,0.0,-1.0,-7.0,-22.0,-26.0,-12.0,-7.0,3
29.0,29.0,28.0,23.0,18.0,21.0,39.0,-156.0,182.0,26.0,26.0,23.0,19.0,-19.0,-42.0,-103.0,3
5.0,4.0,0.0,-3.0,-16.0,-20.0,7.0,-15.0,11.0,4.0,3.0,1.0,0.0,-1.0,3.0,6.0,3
4.0,4.0,2.0,3.0,3.0,-9.0,17.0,10.0,6.0,5.0,4.0,6.0,10.0,11.0,-14.0,-10.0,3
6.0,-3.0,17.0,16.0,10.0,-100.0,-780.0,-1962.0,-11.0,8.0,16.0,17.0,16.0,4.0,7.0,-5.0,3
2.0,5.0,2.0,-4.0,-21.0,-31.0,-32.0,-6.0,2.0,1.0,-2.0,-9.0,-18.0,-12.0,-11.0,-1.0,3
-75.0,-64.0,-38.0,-53.0,-107.0,-127.0,-255.0,-751.0,18.0,-43.0,-43.0,-61.0,-84.0,-93.0,-70.0,-128.0,3
-21.0,-19.0,-23.0,-20.0,-9.0,-61.0,-43.0,-8.0,-24.0,-20.0,-19.0,-18.0,-19.0,-69.0,-93.0,-77.0,3
9.0,4.0,4.0,10.0,39.0,52.0,29.0,37.0,8.0,5.0,5.0,13.0,24.0,25.0,27.0,13.0,3
-36.0,-33.0,-15.0,-12.0,-14.0,-74.0,-216.0,-603.0,24.0,-21.0,-17.0,-12.0,-3.0,-22.0,-37.0,-77.0,3
-1.0,2.0,2.0,1.0,-10.0,7.0,24.0,10.0,0.0,3.0,3.0,1.0,1.0,7.0,24.0,10.0,3
25.0,17.0,35.0,28.0,-20.0,-159.0,-508.0,-1825.0,434.0,22.0,28.0,24.0,9.0,-73.0,-187.0,-514.0,3
-13.0,-12.0,-12.0,-6.0,2.0,23.0,29.0,-78.0,58.0,-11.0,-11.0,-6.0,-1.0,-11.0,-27.0,-75.0,3
-83.0,-65.0,-49.0,-58.0,-93.0,-166.0,-186.0,-1126.0,-5.0,-53.0,-50.0,-59.0,-67.0,-109.0,-109.0,-144.0,3
-10.0,3.0,7.0,-3.0,-35.0,-65.0,-95.0,-332.0,21.0,-1.0,-5.0,-13.0,-31.0,-36.0,-29.0,-35.0,3
-14.0,-8.0,-3.0,-9.0,-29.0,-5.0,0.0,-232.0,-2.0,-8.0,-7.0,-10.0,-18.0,-45.0,-36.0,-33.0,3
7.0,7.0,6.0,2.0,-14.0,-2.0,-26.0,111.0,3.0,4.0,3.0,0.0,-1.0,10.0,25.0,11.0,3
1.0,5.0,0.0,-7.0,-25.0,-39.0,-11.0,6.0,1.0,0.0,-4.0,-9.0,-13.0,-19.0,-42.0,-16.0,3
16.0,12.0,10.0,9.0,7.0,38.0,71.0,-72.0,15.0,9.0,8.0,2.0,-11.0,8.0,12.0,11.0,3
-5.0,-16.0,-11.0,-11.0,-3.0,12.0,23.0,4.0,-5.0,-9.0,-12.0,-14.0,-16.0,-21.0,-13.0,13.0,3
9.0,14.0,11.0,14.0,25.0,17.0,10.0,10.0,11.0,10.0,10.0,13.0,18.0,17.0,13.0,17.0,3
17.0,23.0,24.0,25.0,23.0,15.0,35.0,17.0,7.0,16.0,18.0,19.0,15.0,24.0,40.0,8.0,3
17.0,14.0,34.0,30.0,-6.0,-211.0,-859.0,-1920.0,-36.0,10.0,25.0,25.0,21.0,12.0,13.0,-15.0,3
20.0,19.0,17.0,19.0,27.0,48.0,50.0,54.0,17.0,17.0,16.0,16.0,17.0,52.0,49.0,27.0,3
30.0,27.0,35.0,31.0,3.0,-61.0,-237.0,-1323.0,436.0,32.0,33.0,29.0,18.0,-54.0,-152.0,-401.0,3
7.0,35.0,32.0,31.0,57.0,200.0,467.0,1837.0,-8.0,30.0,28.0,25.0,21.0,81.0,77.0,66.0,3
-77.0,-25.0,-30.0,-17.0,37.0,23.0,68.0,1058.0,-26.0,-30.0,-25.0,-13.0,-13.0,-107.0,-63.0,-70.0,3
-23.0,-9.0,-8.0,-19.0,-48.0,-89.0,-266.0,-259.0,-14.0,-13.0,-17.0,-29.0,-63.0,-163.0,-191.0,-152.0,3
-20.0,-15.0,-13.0,-11.0,-10.0,12.0,-3.0,-20.0,-20.0,-14.0,-10.0,-8.0,-6.0,-2.0,-5.0,-22.0,3
-40.0,-41.0,-41.0,-42.0,-34.0,-43.0,-83.0,-307.0,-20.0,-34.0,-35.0,-33.0,-21.0,-11.0,6.0,-29.0,3
-26.0,-20.0,-8.0,-8.0,-17.0,-91.0,-228.0,-675.0,35.0,-13.0,-12.0,-9.0,-6.0,-9.0,-47.0,-76.0,3
12.0,14.0,21.0,19.0,-12.0,-96.0,-337.0,-1316.0,-27.0,11.0,19.0,16.0,11.0,9.0,13.0,10.0,3
-20.0,-19.0,-21.0,-21.0,-15.0,-9.0,3.0,-61.0,-14.0,-17.0,-17.0,-16.0,-15.0,-18.0,-23.0,-18.0,3
4.0,6.0,8.0,11.0,25.0,30.0,20.0,-111.0,9.0,8.0,9.0,12.0,15.0,34.0,24.0,16.0,3
-7.0,-1.0,0.0,0.0,-9.0,-1.0,-9.0,-156.0,8.0,-1.0,-2.0,-4.0,-2.0,19.0,27.0,17.0,3
23.0,19.0,15.0,13.0,19.0,14.0,23.0,73.0,28.0,15.0,11.0,10.0,11.0,22.0,12.0,19.0,3
11.0,22.0,25.0,23.0,-21.0,-164.0,-564.0,-1874.0,-1.0,17.0,19.0,16.0,9.0,5.0,7.0,2.0,3
-65.0,-64.0,-61.0,-66.0,-75.0,-97.0,-68.0,-415.0,-61.0,-54.0,-54.0,-58.0,-69.0,-135.0,-181.0,-146.0,3
-25.0,-23.0,1.0,-1.0,-42.0,-241.0,-852.0,-1885.0,-28.0,-7.0,1.0,-1.0,-8.0,-11.0,-11.0,-23.0,3
-40.0,-31.0,-17.0,-3.0,22.0,12.0,-133.0,-684.0,30.0,-21.0,-10.0,4.0,23.0,63.0,73.0,-57.0,3
-3.0,-6.0,-9.0,-9.0,-4.0,-12.0,-33.0,116.0,-9.0,-9.0,-9.0,-8.0,-10.0,-36.0,-52.0,-25.0,3
9.0,3.0,-1.0,1.0,4.0,8.0,6.0,-65.0,12.0,6.0,3.0,0.0,-5.0,0.0,11.0,17.0,3
6.0,7.0,11.0,10.0,10.0,-27.0,-60.0,-339.0,24.0,10.0,11.0,11.0,9.0,-4.0,-9.0,-32.0,3
7.0,11.0,23.0,24.0,22.0,4.0,-109.0,-506.0,55.0,14.0,13.0,12.0,15.0,52.0,14.0,-44.0,3
-36.0,-5.0,8.0,2.0,-14.0,-59.0,-201.0,-692.0,84.0,-1.0,0.0,-2.0,-6.0,-13.0,-42.0,-104.0,3
-52.0,-13.0,-18.0,-12.0,32.0,208.0,845.0,1915.0,-224.0,-7.0,-11.0,-2.0,11.0,60.0,110.0,222.0,3
28.0,23.0,29.0,27.0,9.0,2.0,-5.0,-347.0,57.0,25.0,24.0,21.0,10.0,14.0,19.0,12.0,3
16.0,4.0,14.0,12.0,12.0,15.0,-7.0,68.0,3.0,8.0,12.0,13.0,13.0,9.0,5.0,5.0,3
-39.0,-43.0,-33.0,-35.0,-43.0,-59.0,-128.0,-361.0,-2.0,-31.0,-32.0,-37.0,-46.0,-71.0,-89.0,-93.0,3
-26.0,-4.0,-12.0,-12.0,22.0,161.0,593.0,1855.0,-60.0,-5.0,-10.0,-15.0,-22.0,-44.0,-44.0,39.0,3
15.0,13.0,14.0,10.0,-2.0,-41.0,-49.0,-39.0,12.0,11.0,8.0,3.0,-3.0,-15.0,-26.0,-15.0,3
-18.0,-14.0,-13.0,-7.0,10.0,2.0,1.0,39.0,-20.0,-13.0,-12.0,-9.0,-7.0,-29.0,-34.0,-37.0,3
13.0,18.0,6.0,5.0,19.0,68.0,225.0,770.0,-26.0,7.0,3.0,4.0,9.0,7.0,34.0,101.0,3
34.0,36.0,37.0,38.0,37.0,50.0,43.0,49.0,38.0,34.0,35.0,36.0,39.0,56.0,61.0,53.0,3
0.0,-2.0,2.0,2.0,10.0,38.0,39.0,-374.0,11.0,2.0,4.0,0.0,-11.0,-66.0,-73.0,-45.0,3
1.0,5.0,5.0,7.0,8.0,-27.0,-114.0,-442.0,9.0,7.0,8.0,12.0,15.0,19.0,23.0,13.0,3
24.0,31.0,28.0,29.0,15.0,32.0,54.0,3.0,25.0,25.0,27.0,28.0,27.0,47.0,85.0,50.0,3
0.0,5.0,14.0,6.0,-46.0,-223.0,-716.0,-1861.0,317.0,-4.0,1.0,-2.0,-12.0,-79.0,-199.0,-562.0,3
-36.0,-24.0,-19.0,-12.0,22.0,46.0,59.0,-118.0,-24.0,-22.0,-19.0,-15.0,-7.0,2.0,-24.0,-40.0,3
-50.0,-31.0,-30.0,-18.0,13.0,-4.0,47.0,276.0,-91.0,-24.0,-21.0,-7.0,17.0,15.0,10.0,72.0,3
-61.0,-56.0,-42.0,-52.0,-75.0,-103.0,-132.0,-999.0,-13.0,-49.0,-47.0,-53.0,-60.0,-77.0,-93.0,-111.0,3
18.0,17.0,16.0,14.0,14.0,42.0,129.0,459.0,195.0,17.0,15.0,16.0,10.0,-30.0,-58.0,-107.0,3
-39.0,-38.0,-25.0,-31.0,-35.0,-60.0,-86.0,-856.0,1.0,-29.0,-27.0,-28.0,-23.0,-32.0,-60.0,-88.0,3
-44.0,-38.0,-28.0,-31.0,-43.0,-57.0,-135.0,-649.0,10.0,-32.0,-30.0,-29.0,-26.0,-56.0,-88.0,-116.0,3
6.0,1.0,0.0,-6.0,-11.0,8.0,-9.0,-74.0,32.0,3.0,-1.0,-8.0,-13.0,-2.0,-1.0,-3.0,3
-16.0,-14.0,-12.0,-18.0,-29.0,-32.0,-55.0,-156.0,-6.0,-15.0,-17.0,-20.0,-23.0,-7.0,-22.0,-24.0,3
-8.0,-3.0,0.0,4.0,11.0,-12.0,-47.0,-21.0,-10.0,-4.0,0.0,5.0,12.0,5.0,6.0,-8.0,3
5.0,6.0,6.0,7.0,18.0,3.0,5.0,16.0,2.0,6.0,8.0,9.0,7.0,11.0,11.0,8.0,3
-13.0,-15.0,-13.0,-19.0,-32.0,-30.0,-3.0,31.0,-13.0,-12.0,-12.0,-16.0,-17.0,-15.0,-22.0,-20.0,3
-21.0,-19.0,-17.0,-18.0,-28.0,-53.0,-94.0,-124.0,43.0,-17.0,-16.0,-16.0,-17.0,-40.0,-58.0,-81.0,3
-6.0,-7.0,-5.0,-1.0,4.0,15.0,25.0,8.0,-9.0,-3.0,1.0,5.0,13.0,8.0,-1.0,0.0,3
2.0,5.0,0.0,0.0,3.0,59.0,63.0,29.0,4.0,1.0,1.0,2.0,3.0,0.0,-6.0,-2.0,3
-65.0,-42.0,-62.0,-66.0,-37.0,78.0,874.0,1956.0,-251.0,-35.0,-45.0,-39.0,-18.0,-47.0,-74.0,162.0,3
14.0,17.0,17.0,19.0,16.0,1.0,-7.0,17.0,10.0,15.0,17.0,21.0,25.0,22.0,8.0,4.0,3
-29.0,-39.0,-35.0,-41.0,-42.0,-30.0,30.0,-284.0,-37.0,-35.0,-38.0,-40.0,-48.0,-75.0,-65.0,-65.0,3
2.0,0.0,-2.0,-3.0,-2.0,2.0,0.0,29.0,3.0,-2.0,-5.0,-5.0,-8.0,-8.0,-7.0,1.0,3
-50.0,-31.0,-30.0,-33.0,-46.0,-95.0,-249.0,-541.0,54.0,-33.0,-36.0,-39.0,-40.0,-67.0,-103.0,-149.0,3
-22.0,-21.0,-21.0,-24.0,-39.0,-98.0,-82.0,45.0,-19.0,-20.0,-21.0,-24.0,-28.0,-7.0,16.0,-11.0,3
-6.0,-13.0,-14.0,-7.0,10.0,6.0,41.0,30.0,-8.0,-11.0,-9.0,-4.0,6.0,5.0,2.0,-9.0,3
-28.0,-16.0,-16.0,-19.0,-25.0,-73.0,-85.0,-64.0,-31.0,-18.0,-19.0,-25.0,-38.0,-65.0,-58.0,-53.0,3
24.0,26.0,30.0,27.0,6.0,-39.0,-169.0,-632.0,406.0,21.0,25.0,23.0,16.0,-55.0,-173.0,-525.0,3
-9.0,-6.0,-3.0,0.0,13.0,-3.0,-17.0,-17.0,-12.0,-7.0,-5.0,-5.0,-10.0,-15.0,-19.0,-24.0,3
15.0,21.0,19.0,3.0,-46.0,-44.0,-11.0,-176.0,23.0,14.0,9.0,-4.0,-18.0,-24.0,-4.0,8.0,3
-2.0,2.0,0.0,1.0,11.0,-37.0,-24.0,29.0,-3.0,-2.0,-1.0,0.0,1.0,-4.0,-10.0,-9.0,3
-10.0,16.0,19.0,20.0,21.0,36.0,59.0,159.0,-77.0,17.0,20.0,23.0,25.0,43.0,72.0,124.0,3
-5.0,0.0,-3.0,1.0,13.0,-16.0,-26.0,-100.0,3.0,-2.0,-1.0,6.0,20.0,38.0,9.0,-2.0,3
37.0,43.0,40.0,29.0,2.0,-44.0,-155.0,-989.0,264.0,21.0,22.0,19.0,10.0,-39.0,-92.0,-223.0,3
-9.0,-7.0,-4.0,-1.0,0.0,-17.0,-99.0,-431.0,-13.0,-10.0,-10.0,-9.0,-8.0,-16.0,-26.0,-22.0,3
11.0,10.0,10.0,14.0,21.0,17.0,12.0,0.0,10.0,10.0,10.0,11.0,15.0,12.0,11.0,10.0,3
7.0,5.0,6.0,6.0,0.0,14.0,15.0,27.0,6.0,5.0,5.0,7.0,11.0,-2.0,5.0,12.0,3
