0,1,2,3,4,5,6,7,8,9,10,11,12,13,14,15,16
6.0,7.0,-2.0,6.0,8.0,13.0,15.0,13.0,25.0,26.0,12.0,2.0,-1.0,13.0,41.0,33.0,7
-595.0,-450.0,-249.0,-76.0,-239.0,-488.0,-623.0,-737.0,122.0,92.0,-32.0,-61.0,-47.0,-29.0,-2.0,228.0,7
21.0,22.0,23.0,18.0,13.0,16.0,21.0,21.0,16.0,23.0,19.0,14.0,8.0,9.0,11.0,15.0,7
184.0,142.0,99.0,27.0,95.0,169.0,135.0,208.0,-24.0,2.0,7.0,31.0,54.0,33.0,8.0,-79.0,7
-9.0,-10.0,-9.0,-12.0,-9.0,-6.0,0.0,0.0,-2.0,1.0,-1.0,-7.0,-7.0,-7.0,-1.0,-1.0,7
171.0,130.0,47.0,35.0,56.0,158.0,157.0,178.0,-48.0,-44.0,46.0,29.0,8.0,7.0,3.0,-82.0,7
-18.0,-13.0,-16.0,-15.0,-20.0,-3.0,-7.0,-7.0,-12.0,-15.0,-15.0,-17.0,-24.0,-12.0,-6.0,-5.0,7
131.0,101.0,19.0,40.0,54.0,150.0,137.0,144.0,-57.0,-56.0,59.0,17.0,18.0,31.0,7.0,-89.0,7
59.0,55.0,48.0,39.0,43.0,58.0,59.0,56.0,22.0,28.0,31.0,35.0,36.0,36.0,23.0,13.0,7
-26.0,-30.0,-31.0,-20.0,-15.0,-10.0,-9.0,-16.0,-9.0,7.0,-13.0,-15.0,-10.0,-9.0,-3.0,-7.0,7
-22.0,-23.0,-22.0,-17.0,-12.0,-17.0,-7.0,-22.0,-8.0,-16.0,-16.0,-14.0,-11.0,-5.0,1.0,0.0,7
240.0,176.0,111.0,14.0,62.0,181.0,171.0,261.0,-122.0,-113.0,-21.0,-12.0,-13.0,-41.0,-16.0,-166.0,7
0.0,6.0,44.0,-4.0,-29.0,-63.0,-50.0,-28.0,-9.0,-16.0,-29.0,-10.0,-18.0,-6.0,-3.0,-3.0,7
9.0,8.0,11.0,10.0,5.0,5.0,11.0,10.0,0.0,-7.0,-5.0,-3.0,-24.0,-43.0,12.0,0.0,7
-33.0,-27.0,-30.0,-7.0,-19.0,-33.0,-39.0,-43.0,2.0,-5.0,-6.0,-14.0,-16.0,-15.0,-3.0,14.0,7
-18.0,-19.0,-24.0,-18.0,-17.0,-16.0,-8.0,-6.0,-13.0,-8.0,-16.0,-16.0,-12.0,-4.0,10.0,-10.0,7
-12.0,-14.0,-12.0,-12.0,-14.0,-19.0,-19.0,-18.0,-11.0,-11.0,-12.0,-9.0,-9.0,-10.0,-17.0,-12.0,7
-1.0,-6.0,-39.0,-27.0,-56.0,-31.0,-76.0,33.0,1.0,12.0,36.0,-44.0,-43.0,-28.0,20.0,10.0,7
87.0,66.0,-30.0,25.0,22.0,99.0,68.0,69.0,-76.0,-104.0,84.0,3.0,-13.0,-16.0,-24.0,-94.0,7
9.0,10.0,6.0,11.0,10.0,5.0,5.0,1.0,6.0,-2.0,-1.0,1.0,2.0,5.0,10.0,8.0,7
-18.0,-20.0,-17.0,-23.0,-23.0,-25.0,-20.0,-14.0,-34.0,-50.0,-30.0,-21.0,-20.0,-18.0,-6.0,-28.0,7
8.0,9.0,11.0,7.0,3.0,0.0,-4.0,1.0,-3.0,-8.0,-1.0,2.0,0.0,-4.0,-17.0,-6.0,7
-12.0,-13.0,-14.0,-10.0,-6.0,-6.0,-11.0,-7.0,-11.0,-9.0,-9.0,-6.0,-7.0,-7.0,-7.0,-11.0,7
39.0,41.0,44.0,35.0,29.0,31.0,27.0,33.0,27.0,23.0,29.0,26.0,21.0,17.0,20.0,21.0,7
-11.0,-15.0,-27.0,-16.0,-12.0,-7.0,-6.0,-4.0,-22.0,-18.0,-8.0,-16.0,-10.0,-12.0,-27.0,-22.0,7
5.0,1.0,-8.0,1.0,7.0,11.0,10.0,14.0,0.0,8.0,10.0,1.0,11.0,17.0,13.0,2.0,7
50.0,39.0,46.0,10.0,42.0,82.0,109.0,90.0,11.0,16.0,1.0,20.0,35.0,21.0,6.0,-3.0,7
-12.0,-9.0,-8.0,-8.0,-10.0,-9.0,-15.0,-13.0,-3.0,1.0,2.0,0.0,0.0,-1.0,-17.0,-3.0,7
-9.0,-6.0,-34.0,-47.0,-52.0,-35.0,-69.0,8.0,-43.0,-60.0,16.0,-64.0,-77.0,-82.0,-19.0,-21.0,7
44.0,42.0,21.0,12.0,0.0,34.0,-28.0,46.0,-41.0,-60.0,7.0,3.0,-7.0,-18.0,25.0,-39.0,7
74.0,54.0,27.0,-11.0,11.0,55.0,50.0,67.0,-57.0,-54.0,-22.0,-19.0,-21.0,-27.0,-25.0,-68.0,7
22.0,24.0,21.0,28.0,25.0,25.0,22.0,21.0,21.0,24.0,21.0,18.0,25.0,29.0,23.0,20.0,7
-8.0,-6.0,-6.0,-2.0,-1.0,-6.0,-9.0,-3.0,1.0,10.0,0.0,-1.0,0.0,-1.0,-7.0,-3.0,7
-24.0,-22.0,-14.0,-19.0,-21.0,-25.0,-23.0,-24.0,-27.0,-27.0,-24.0,-21.0,-23.0,-29.0,-38.0,-28.0,7
2.0,0.0,2.0,2.0,6.0,7.0,16.0,15.0,1.0,5.0,1.0,2.0,5.0,10.0,11.0,3.0,7
-1.0,-5.0,-11.0,-6.0,4.0,13.0,21.0,10.0,-5.0,-3.0,2.0,-5.0,-2.0,2.0,9.0,-1.0,7
-32.0,-33.0,-17.0,-19.0,-24.0,-40.0,-43.0,-45.0,-3.0,10.0,-24.0,-10.0,-13.0,-14.0,-12.0,2.0,7
-27.0,-24.0,-22.0,-7.0,-21.0,-33.0,-36.0,-31.0,1.0,-5.0,-9.0,-19.0,-22.0,-24.0,-3.0,6.0,7
2.0,1.0,5.0,1.0,1.0,-3.0,6.0,8.0,5.0,9.0,5.0,4.0,1.0,-2.0,-1.0,5.0,7
-4.0,-6.0,-3.0,-6.0,1.0,7.0,10.0,1.0,0.0,-14.0,-6.0,2.0,12.0,29.0,34.0,4.0,7
-5.0,-2.0,-3.0,8.0,-1.0,-7.0,-38.0,-16.0,13.0,15.0,5.0,6.0,0.0,0.0,12.0,23.0,7
40.0,32.0,26.0,6.0,15.0,35.0,41.0,37.0,0.0,3.0,0.0,7.0,7.0,10.0,3.0,-4.0,7
0.0,1.0,3.0,-5.0,-5.0,-8.0,-14.0,-13.0,-18.0,-43.0,-13.0,-9.0,-12.0,-11.0,-15.0,-15.0,7
-16.0,-17.0,-17.0,-16.0,-12.0,-10.0,-14.0,-11.0,-16.0,-13.0,-14.0,-18.0,-23.0,-21.0,-8.0,-15.0,7
1.0,0.0,-2.0,3.0,5.0,4.0,5.0,3.0,-3.0,-1.0,-2.0,-2.0,-3.0,-3.0,0.0,-2.0,7
7.0,7.0,8.0,4.0,-3.0,-7.0,-2.0,-2.0,9.0,11.0,8.0,5.0,5.0,9.0,14.0,11.0,7
6.0,7.0,3.0,10.0,11.0,11.0,5.0,8.0,9.0,17.0,12.0,11.0,18.0,17.0,-1.0,7.0,7
11.0,9.0,10.0,9.0,8.0,5.0,3.0,8.0,10.0,8.0,9.0,11.0,10.0,10.0,6.0,11.0,7
-9.0,-10.0,-9.0,-2.0,-2.0,-4.0,-6.0,-6.0,-4.0,-1.0,-5.0,-3.0,0.0,0.0,-2.0,-5.0,7
-93.0,-66.0,-44.0,-17.0,-63.0,-115.0,-167.0,-107.0,15.0,-23.0,2.0,-24.0,-35.0,-37.0,10.0,31.0,7
-37.0,-37.0,-34.0,-43.0,-69.0,-62.0,-101.0,-56.0,-65.0,-100.0,-43.0,-54.0,-65.0,-69.0,-36.0,-55.0,7
31.0,34.0,34.0,31.0,24.0,23.0,25.0,29.0,21.0,25.0,27.0,26.0,23.0,21.0,16.0,20.0,7
0.0,1.0,-5.0,3.0,3.0,5.0,3.0,4.0,-1.0,-1.0,-1.0,-3.0,-1.0,-1.0,0.0,1.0,7
-5.0,-6.0,-5.0,1.0,1.0,-2.0,-4.0,-5.0,-3.0,1.0,-1.0,5.0,6.0,5.0,0.0,-3.0,7
-20.0,-22.0,-20.0,-21.0,-18.0,-19.0,-20.0,-24.0,-20.0,-18.0,-17.0,-16.0,-20.0,-25.0,-31.0,-23.0,7
-29.0,-32.0,-33.0,-23.0,-21.0,-28.0,-23.0,-23.0,-23.0,-23.0,-21.0,-19.0,-15.0,-13.0,-12.0,-20.0,7
-4.0,-2.0,0.0,1.0,-3.0,-7.0,-6.0,-5.0,-9.0,-11.0,-9.0,-5.0,-4.0,-6.0,-13.0,-12.0,7
5.0,8.0,10.0,-2.0,-2.0,-4.0,-10.0,-8.0,-17.0,-43.0,-13.0,-10.0,-14.0,-12.0,-12.0,-13.0,7
16.0,23.0,27.0,10.0,7.0,5.0,10.0,14.0,-4.0,-16.0,-4.0,5.0,3.0,7.0,6.0,-1.0,7
-10.0,-10.0,-13.0,-12.0,-15.0,-18.0,-15.0,-11.0,-4.0,5.0,-4.0,-5.0,-3.0,-7.0,-15.0,-3.0,7
24.0,23.0,17.0,12.0,4.0,17.0,19.0,22.0,25.0,19.0,19.0,1.0,-25.0,-19.0,50.0,31.0,7
-276.0,-186.0,-35.0,-55.0,-126.0,-267.0,-312.0,-325.0,62.0,54.0,-173.0,-54.0,-75.0,-85.0,13.0,133.0,7
-7.0,-3.0,30.0,-12.0,-27.0,-53.0,-34.0,-27.0,-13.0,-24.0,-28.0,-13.0,-15.0,0.0,5.0,-6.0,7
14.0,14.0,7.0,8.0,11.0,14.0,16.0,18.0,9.0,10.0,12.0,5.0,6.0,5.0,4.0,8.0,7
108.0,84.0,61.0,33.0,98.0,147.0,142.0,92.0,12.0,44.0,10.0,41.0,63.0,43.0,-18.0,-40.0,7
18.0,17.0,17.0,17.0,21.0,27.0,30.0,27.0,11.0,14.0,8.0,9.0,9.0,11.0,16.0,10.0,7
18.0,9.0,-54.0,-16.0,0.0,23.0,-19.0,53.0,-28.0,-15.0,67.0,-20.0,-25.0,-31.0,-4.0,-26.0,7
-2.0,-3.0,-5.0,-10.0,-6.0,-7.0,-2.0,4.0,1.0,2.0,2.0,-3.0,-1.0,4.0,16.0,6.0,7
40.0,33.0,21.0,-2.0,-10.0,21.0,-19.0,19.0,-63.0,-97.0,0.0,-13.0,-17.0,-18.0,12.0,-59.0,7
-10.0,-5.0,0.0,1.0,-5.0,-11.0,-13.0,-13.0,-4.0,-1.0,-1.0,5.0,2.0,-3.0,-9.0,-1.0,7
14.0,16.0,8.0,13.0,13.0,17.0,17.0,11.0,7.0,9.0,15.0,6.0,7.0,8.0,7.0,5.0,7
-112.0,-88.0,-60.0,-37.0,-97.0,-148.0,-175.0,-119.0,0.0,-35.0,-8.0,-39.0,-59.0,-74.0,-20.0,16.0,7
23.0,22.0,21.0,20.0,19.0,21.0,23.0,26.0,14.0,17.0,15.0,16.0,15.0,11.0,6.0,13.0,7
-13.0,-13.0,-10.0,-3.0,-7.0,-11.0,-11.0,-11.0,-14.0,-7.0,-9.0,-9.0,-11.0,-15.0,-15.0,-16.0,7
-35.0,-29.0,-22.0,-14.0,-43.0,-50.0,-91.0,-59.0,-17.0,-50.0,-14.0,-21.0,-32.0,-31.0,5.0,-5.0,7
-24.0,-23.0,-24.0,-12.0,-17.0,-27.0,-53.0,-35.0,-8.0,-9.0,-13.0,-11.0,-14.0,-7.0,-4.0,1.0,7
-9.0,-8.0,-7.0,-11.0,-12.0,-16.0,-15.0,-12.0,-11.0,-7.0,-5.0,-8.0,-11.0,-13.0,-6.0,-13.0,7
-2.0,-2.0,3.0,1.0,-4.0,-10.0,1.0,-1.0,-6.0,-9.0,-4.0,1.0,0.0,4.0,4.0,0.0,7
-24.0,-26.0,-27.0,-24.0,-24.0,-28.0,-26.0,-24.0,-20.0,-20.0,-19.0,-19.0,-18.0,-20.0,-21.0,-20.0,7
23.0,17.0,12.0,4.0,8.0,20.0,24.0,21.0,-11.0,-6.0,-4.0,-3.0,-7.0,-7.0,-10.0,-20.0,7
-3.0,-2.0,-1.0,2.0,-1.0,-4.0,-8.0,-5.0,-5.0,-3.0,0.0,1.0,-2.0,-8.0,-12.0,-5.0,7
-37.0,-26.0,-25.0,-10.0,-30.0,-45.0,-54.0,-49.0,9.0,-2.0,-7.0,-17.0,-19.0,-15.0,-9.0,17.0,7
-1.0,0.0,-4.0,4.0,2.0,4.0,-9.0,-4.0,-5.0,-6.0,3.0,6.0,5.0,0.0,-6.0,-7.0,7
-15.0,-14.0,-2.0,-13.0,-17.0,-35.0,-24.0,-29.0,-25.0,-38.0,-29.0,-17.0,-23.0,-25.0,-8.0,-17.0,7
-11.0,-8.0,-56.0,-17.0,-13.0,-13.0,-52.0,22.0,-13.0,-3.0,62.0,-29.0,-29.0,-34.0,-6.0,-3.0,7
-15.0,-16.0,-5.0,-10.0,-5.0,-5.0,-9.0,-17.0,16.0,13.0,-6.0,-3.0,-5.0,-3.0,-7.0,17.0,7
5.0,4.0,-3.0,0.0,-2.0,2.0,3.0,8.0,5.0,7.0,9.0,-1.0,-4.0,-3.0,14.0,5.0,7
22.0,22.0,13.0,20.0,20.0,21.0,31.0,30.0,13.0,11.0,15.0,14.0,14.0,15.0,15.0,10.0,7
-10.0,-11.0,-12.0,-11.0,-10.0,-7.0,-9.0,-5.0,-4.0,2.0,-4.0,-8.0,-3.0,-1.0,-13.0,-3.0,7
20.0,16.0,-16.0,-3.0,-5.0,19.0,11.0,60.0,11.0,23.0,17.0,-18.0,-23.0,-26.0,17.0,22.0,7
-188.0,-152.0,-78.0,-98.0,-136.0,-230.0,-288.0,-147.0,31.0,35.0,-32.0,-94.0,-59.0,-71.0,-26.0,92.0,7
110.0,82.0,5.0,41.0,47.0,128.0,142.0,124.0,-73.0,-77.0,79.0,26.0,14.0,22.0,-12.0,-103.0,7
137.0,104.0,59.0,17.0,45.0,128.0,58.0,117.0,-99.0,-97.0,-9.0,-2.0,-8.0,-36.0,-4.0,-121.0,7
32.0,36.0,40.0,30.0,28.0,34.0,40.0,37.0,20.0,10.0,4.0,6.0,-9.0,-21.0,43.0,19.0,7
-54.0,-42.0,-88.0,-35.0,-48.0,-62.0,-110.0,-16.0,-7.0,-6.0,28.0,-53.0,-64.0,-70.0,1.0,13.0,7
57.0,41.0,30.0,31.0,102.0,132.0,275.0,73.0,23.0,93.0,35.0,60.0,81.0,95.0,-47.0,0.0,7
-21.0,-20.0,-23.0,-24.0,-37.0,-32.0,-101.0,-13.0,-77.0,-112.0,-32.0,-31.0,-33.0,-52.0,-13.0,-71.0,7
17.0,18.0,18.0,19.0,17.0,16.0,17.0,20.0,14.0,17.0,17.0,14.0,17.0,16.0,14.0,14.0,7
1.0,1.0,-1.0,3.0,3.0,5.0,4.0,5.0,4.0,5.0,5.0,6.0,5.0,6.0,3.0,3.0,7
-12.0,-11.0,-13.0,-17.0,-20.0,-16.0,-14.0,-8.0,-14.0,-17.0,-10.0,-17.0,-26.0,-26.0,-18.0,-14.0,7
22.0,25.0,24.0,20.0,20.0,21.0,16.0,18.0,19.0,24.0,20.0,17.0,11.0,10.0,11.0,17.0,7
-15.0,-14.0,-12.0,-10.0,-10.0,-15.0,-19.0,-11.0,-3.0,4.0,-7.0,-5.0,-3.0,-2.0,-1.0,-3.0,7
8.0,8.0,57.0,14.0,3.0,-22.0,9.0,-16.0,24.0,38.0,-39.0,16.0,4.0,9.0,5.0,23.0,7
-29.0,-30.0,-29.0,-19.0,-19.0,-22.0,-22.0,-20.0,-24.0,-15.0,-17.0,-20.0,-12.0,-7.0,-24.0,-21.0,7
-17.0,-19.0,-36.0,-39.0,-55.0,-31.0,-93.0,-1.0,-18.0,-20.0,53.0,-53.0,-31.0,-20.0,7.0,-3.0,7
-39.0,-30.0,-19.0,-11.0,-24.0,-44.0,-39.0,-43.0,-10.0,-22.0,-20.0,-17.0,-25.0,-31.0,-24.0,1.0,7
0.0,1.0,3.0,-2.0,-2.0,-1.0,-2.0,-3.0,-5.0,-13.0,-6.0,-2.0,-2.0,6.0,8.0,-6.0,7
-227.0,-176.0,-116.0,-72.0,-112.0,-205.0,-208.0,-149.0,78.0,87.0,-36.0,-76.0,-61.0,-56.0,37.0,149.0,7
71.0,64.0,63.0,42.0,63.0,71.0,95.0,58.0,18.0,28.0,33.0,39.0,45.0,28.0,12.0,6.0,7
15.0,13.0,19.0,10.0,8.0,12.0,18.0,12.0,12.0,18.0,8.0,10.0,5.0,2.0,-6.0,6.0,7
-5.0,-6.0,-4.0,-11.0,-7.0,-8.0,-4.0,0.0,1.0,-2.0,-9.0,-7.0,-5.0,-1.0,13.0,7.0,7
-21.0,-15.0,-24.0,-4.0,-8.0,-12.0,-18.0,-25.0,0.0,2.0,0.0,-9.0,-7.0,-4.0,-3.0,5.0,7
6.0,11.0,11.0,8.0,3.0,-3.0,-2.0,2.0,10.0,10.0,4.0,3.0,0.0,-6.0,-9.0,8.0,7
-5.0,-4.0,-10.0,-6.0,-7.0,-5.0,-5.0,-8.0,-12.0,-8.0,-1.0,-9.0,-11.0,-15.0,-15.0,-15.0,7
1.0,1.0,-2.0,-3.0,-3.0,-5.0,-7.0,-4.0,-5.0,-2.0,0.0,-3.0,-6.0,-11.0,-17.0,-6.0,7
-35.0,-28.0,-32.0,-9.0,-20.0,-31.0,-73.0,-43.0,-27.0,-35.0,-31.0,-22.0,-27.0,-28.0,-24.0,-14.0,7
1.0,-3.0,-4.0,-7.0,-5.0,-6.0,-6.0,4.0,-9.0,-18.0,-12.0,-2.0,-6.0,-4.0,6.0,-5.0,7
5.0,8.0,13.0,8.0,5.0,-2.0,-2.0,0.0,6.0,2.0,1.0,4.0,3.0,0.0,-15.0,5.0,7
-1.0,-2.0,-1.0,-2.0,0.0,3.0,2.0,6.0,2.0,8.0,3.0,2.0,1.0,4.0,12.0,4.0,7
145.0,110.0,95.0,62.0,147.0,191.0,297.0,147.0,56.0,112.0,34.0,78.0,111.0,114.0,13.0,7.0,7
-31.0,-18.0,-8.0,8.0,-8.0,-32.0,-31.0,-39.0,18.0,0.0,4.0,0.0,-3.0,4.0,24.0,36.0,7
40.0,32.0,28.0,9.0,16.0,34.0,41.0,37.0,0.0,3.0,2.0,8.0,9.0,13.0,4.0,-6.0,7
-8.0,-9.0,-10.0,-8.0,-10.0,-6.0,-3.0,0.0,-17.0,-12.0,-14.0,-16.0,-24.0,-35.0,-37.0,-18.0,7
6.0,10.0,15.0,2.0,1.0,1.0,2.0,5.0,-15.0,-25.0,-10.0,-1.0,0.0,5.0,-2.0,-12.0,7
-30.0,-27.0,-35.0,-17.0,-18.0,-22.0,-23.0,-31.0,-5.0,-3.0,-8.0,-16.0,-13.0,-12.0,-7.0,2.0,7
-43.0,-41.0,-43.0,-28.0,-38.0,-47.0,-50.0,-47.0,-11.0,-17.0,-21.0,-29.0,-31.0,-34.0,-20.0,-6.0,7
-47.0,-39.0,-44.0,-21.0,-34.0,-46.0,-60.0,-55.0,-9.0,-24.0,-8.0,-21.0,-24.0,-21.0,-12.0,1.0,7
-5.0,-6.0,-4.0,-9.0,-4.0,-2.0,-3.0,-3.0,-2.0,-1.0,-5.0,-3.0,2.0,8.0,4.0,1.0,7
-18.0,-19.0,-18.0,-17.0,-14.0,-10.0,-8.0,-12.0,-14.0,-13.0,-14.0,-11.0,-7.0,-3.0,-10.0,-12.0,7
-39.0,-36.0,-39.0,-19.0,-25.0,-35.0,-35.0,-41.0,-2.0,-8.0,-6.0,-12.0,-12.0,-6.0,-2.0,10.0,7
-67.0,-54.0,-33.0,-24.0,-44.0,-70.0,-78.0,-78.0,14.0,-7.0,-25.0,-19.0,-31.0,-23.0,2.0,33.0,7
-76.0,-60.0,-52.0,-23.0,-60.0,-93.0,-122.0,-99.0,-6.0,-28.0,-11.0,-27.0,-39.0,-40.0,2.0,19.0,7
-28.0,-29.0,-31.0,-23.0,-20.0,-26.0,-25.0,-24.0,-23.0,-23.0,-20.0,-18.0,-15.0,-16.0,-19.0,-20.0,7
10.0,12.0,8.0,10.0,9.0,6.0,6.0,12.0,1.0,3.0,3.0,8.0,9.0,7.0,-1.0,1.0,7
-82.0,-76.0,-89.0,-71.0,-109.0,-118.0,-158.0,-47.0,-4.0,6.0,7.0,-74.0,-70.0,-59.0,1.0,19.0,7
-29.0,-28.0,-27.0,-22.0,-31.0,-35.0,-37.0,-36.0,-13.0,-13.0,-22.0,-22.0,-26.0,-26.0,-23.0,-8.0,7
9.0,10.0,12.0,4.0,-1.0,-9.0,-13.0,4.0,-14.0,-27.0,-5.0,-7.0,-13.0,-25.0,-26.0,-18.0,7
-1.0,0.0,0.0,2.0,-4.0,-5.0,-8.0,-4.0,6.0,12.0,8.0,7.0,3.0,2.0,-2.0,3.0,7
7.0,7.0,10.0,11.0,10.0,12.0,9.0,8.0,6.0,8.0,10.0,10.0,4.0,6.0,2.0,5.0,7
0.0,1.0,1.0,9.0,4.0,0.0,5.0,10.0,0.0,1.0,5.0,5.0,4.0,7.0,9.0,3.0,7
4.0,3.0,6.0,-4.0,-5.0,-3.0,-5.0,-7.0,-3.0,-9.0,0.0,-2.0,-2.0,2.0,-1.0,-4.0,7
166.0,135.0,101.0,40.0,81.0,148.0,80.0,156.0,7.0,27.0,36.0,46.0,63.0,65.0,32.0,-39.0,7
-17.0,-20.0,-48.0,-35.0,-67.0,-49.0,-93.0,17.0,1.0,11.0,31.0,-51.0,-50.0,-35.0,17.0,12.0,7
-37.0,-33.0,-35.0,-26.0,-38.0,-43.0,-47.0,-43.0,-10.0,-15.0,-21.0,-32.0,-37.0,-36.0,-22.0,-6.0,7
-42.0,-38.0,-28.0,-28.0,-59.0,-60.0,-141.0,-67.0,-41.0,-74.0,-16.0,-35.0,-50.0,-62.0,-3.0,-31.0,7
104.0,79.0,6.0,32.0,42.0,117.0,136.0,113.0,-66.0,-68.0,71.0,28.0,12.0,18.0,-13.0,-96.0,7
15.0,16.0,17.0,18.0,17.0,19.0,19.0,19.0,9.0,12.0,8.0,7.0,3.0,3.0,5.0,8.0,7
-25.0,-26.0,-24.0,-26.0,-27.0,-26.0,-16.0,-25.0,-20.0,-25.0,-20.0,-22.0,-25.0,-22.0,-16.0,-19.0,7
-5.0,-6.0,-8.0,-8.0,-12.0,-15.0,-13.0,-5.0,-10.0,-10.0,-11.0,-13.0,-22.0,-29.0,-37.0,-13.0,7
-5.0,-4.0,-3.0,-9.0,-10.0,-8.0,-7.0,-3.0,-5.0,-4.0,-13.0,-13.0,-11.0,-8.0,-3.0,-3.0,7
12.0,13.0,9.0,15.0,21.0,17.0,15.0,17.0,13.0,23.0,17.0,17.0,27.0,27.0,1.0,12.0,7
-18.0,-18.0,-3.0,-25.0,-33.0,-42.0,-32.0,-26.0,-26.0,-45.0,-37.0,-14.0,-18.0,-15.0,-25.0,-24.0,7
-41.0,-39.0,-40.0,-21.0,-30.0,-39.0,-78.0,-54.0,-19.0,-20.0,-24.0,-20.0,-25.0,-22.0,-15.0,-8.0,7
84.0,62.0,-32.0,14.0,14.0,92.0,61.0,66.0,-78.0,-107.0,76.0,0.0,-13.0,-4.0,-26.0,-96.0,7
-11.0,-11.0,-11.0,-8.0,-11.0,-14.0,-10.0,-8.0,-9.0,-9.0,-10.0,-8.0,-11.0,-10.0,-12.0,-6.0,7
17.0,18.0,20.0,13.0,10.0,9.0,0.0,4.0,-3.0,-27.0,-3.0,5.0,2.0,0.0,4.0,1.0,7
13.0,16.0,20.0,4.0,0.0,2.0,4.0,10.0,-1.0,-13.0,3.0,8.0,5.0,11.0,11.0,1.0,7
135.0,96.0,3.0,16.0,33.0,136.0,112.0,162.0,-70.0,-70.0,33.0,2.0,-16.0,-16.0,-14.0,-96.0,7
-15.0,-6.0,1.0,15.0,-2.0,-5.0,-31.0,-11.0,18.0,5.0,4.0,6.0,2.0,4.0,25.0,27.0,7
-17.0,-16.0,-8.0,-13.0,-20.0,-31.0,-18.0,-20.0,-20.0,-26.0,-20.0,-16.0,-22.0,-20.0,-12.0,-15.0,7
-16.0,-13.0,-5.0,1.0,-9.0,-10.0,-24.0,-12.0,4.0,-6.0,0.0,-5.0,-9.0,-5.0,8.0,13.0,7
-15.0,-14.0,-17.0,-7.0,-7.0,-8.0,-7.0,-9.0,-11.0,-4.0,-5.0,-5.0,1.0,5.0,-9.0,-7.0,7
-32.0,-14.0,-9.0,-4.0,-54.0,-54.0,-82.0,-50.0,-18.0,-64.0,-2.0,-21.0,-42.0,-55.0,-41.0,0.0,7
74.0,51.0,-18.0,-9.0,-18.0,56.0,12.0,98.0,-30.0,-24.0,38.0,-23.0,-28.0,-11.0,14.0,-39.0,7
-17.0,-16.0,-17.0,-17.0,-20.0,-20.0,-21.0,-15.0,-13.0,-9.0,-7.0,-11.0,-9.0,-6.0,-6.0,-11.0,7
-4.0,-5.0,-4.0,-6.0,-9.0,-15.0,-35.0,-22.0,-16.0,-24.0,-12.0,-10.0,-15.0,-18.0,-17.0,-11.0,7
3.0,4.0,4.0,2.0,1.0,5.0,2.0,6.0,-4.0,1.0,2.0,0.0,-2.0,-1.0,2.0,-4.0,7
89.0,68.0,-26.0,21.0,19.0,98.0,64.0,72.0,-74.0,-103.0,79.0,1.0,-10.0,-1.0,-21.0,-91.0,7
-373.0,-292.0,-189.0,-131.0,-222.0,-417.0,-407.0,-342.0,80.0,52.0,-64.0,-117.0,-108.0,-114.0,-5.0,178.0,7
0.0,-2.0,-2.0,-6.0,-6.0,-3.0,0.0,3.0,7.0,15.0,7.0,1.0,-2.0,-5.0,-10.0,5.0,7
160.0,119.0,75.0,-1.0,38.0,113.0,70.0,138.0,-94.0,-94.0,-22.0,-16.0,-24.0,-28.0,-14.0,-134.0,7
59.0,57.0,35.0,24.0,17.0,53.0,-9.0,66.0,-24.0,-46.0,19.0,15.0,9.0,8.0,55.0,-19.0,7
10.0,11.0,16.0,10.0,2.0,0.0,-14.0,-8.0,-5.0,-25.0,-4.0,5.0,3.0,3.0,0.0,0.0,7
36.0,25.0,-20.0,-8.0,-23.0,27.0,-31.0,38.0,-34.0,-40.0,77.0,-28.0,-10.0,3.0,2.0,-32.0,7
-18.0,-20.0,-18.0,-17.0,-16.0,-16.0,-15.0,-15.0,-15.0,-14.0,-18.0,-15.0,-15.0,-14.0,-14.0,-14.0,7
-17.0,-18.0,-19.0,-15.0,-11.0,-11.0,-11.0,-9.0,-10.0,-2.0,-8.0,-10.0,-10.0,-8.0,-11.0,-8.0,7
-19.0,-24.0,-32.0,-28.0,-25.0,-20.0,-18.0,-14.0,-28.0,-27.0,-27.0,-22.0,-25.0,-30.0,-39.0,-32.0,7
-54.0,-46.0,-39.0,-30.0,-42.0,-63.0,-60.0,-64.0,-13.0,-27.0,-23.0,-28.0,-40.0,-41.0,-29.0,0.0,7
9.0,9.0,6.0,12.0,10.0,5.0,7.0,2.0,6.0,-1.0,-1.0,0.0,2.0,6.0,10.0,9.0,7
-63.0,-47.0,-26.0,-22.0,-51.0,-77.0,-94.0,-84.0,-3.0,-36.0,-28.0,-27.0,-39.0,-37.0,-4.0,15.0,7
-565.0,-412.0,-218.0,-70.0,-205.0,-434.0,-603.0,-795.0,61.0,46.0,-52.0,-61.0,-39.0,-23.0,-20.0,136.0,7
-14.0,-15.0,-15.0,-10.0,-12.0,-9.0,-11.0,-13.0,-11.0,-10.0,-11.0,-7.0,-5.0,-4.0,-14.0,-12.0,7
4.0,7.0,12.0,-11.0,-11.0,-11.0,-9.0,-1.0,-15.0,-29.0,-15.0,-7.0,-8.0,-7.0,-4.0,-12.0,7
0.0,3.0,0.0,12.0,12.0,10.0,13.0,8.0,16.0,11.0,19.0,10.0,9.0,11.0,13.0,23.0,7
5.0,5.0,6.0,5.0,4.0,10.0,13.0,17.0,5.0,13.0,0.0,-1.0,-8.0,-11.0,-1.0,3.0,7
11.0,13.0,10.0,11.0,15.0,19.0,13.0,16.0,12.0,12.0,9.0,12.0,15.0,19.0,10.0,12.0,7
128.0,95.0,54.0,14.0,28.0,100.0,31.0,99.0,-99.0,-97.0,-12.0,-4.0,-14.0,-47.0,-29.0,-123.0,7
-3.0,-1.0,-6.0,5.0,9.0,5.0,3.0,4.0,-5.0,1.0,-1.0,2.0,2.0,5.0,-2.0,-5.0,7
-5.0,-5.0,-5.0,0.0,5.0,7.0,4.0,4.0,-4.0,0.0,-7.0,-4.0,-3.0,-6.0,-11.0,-5.0,7
-20.0,-20.0,-22.0,-22.0,-19.0,-17.0,-14.0,-16.0,-10.0,-14.0,-13.0,-15.0,-16.0,-22.0,-5.0,-3.0,7
19.0,15.0,-4.0,12.0,19.0,29.0,27.0,27.0,-12.0,-11.0,11.0,2.0,6.0,-4.0,-21.0,-15.0,7
21.0,21.0,21.0,14.0,21.0,30.0,33.0,25.0,13.0,6.0,14.0,16.0,21.0,37.0,51.0,15.0,7
23.0,26.0,32.0,23.0,16.0,15.0,14.0,20.0,17.0,14.0,21.0,19.0,13.0,5.0,1.0,13.0,7
-81.0,-70.0,-62.0,-36.0,-72.0,-99.0,-125.0,-100.0,-26.0,-53.0,-29.0,-43.0,-55.0,-53.0,-2.0,-3.0,7
7.0,7.0,10.0,3.0,3.0,3.0,15.0,3.0,9.0,11.0,6.0,5.0,11.0,27.0,40.0,13.0,7
-19.0,-21.0,-19.0,-23.0,-22.0,-22.0,-21.0,-19.0,-22.0,-28.0,-24.0,-21.0,-21.0,-25.0,-25.0,-22.0,7
9.0,5.0,3.0,0.0,1.0,5.0,11.0,15.0,6.0,7.0,3.0,0.0,-2.0,-6.0,-2.0,5.0,7
16.0,11.0,5.0,-19.0,-25.0,-23.0,-70.0,-7.0,-64.0,-92.0,-29.0,-30.0,-37.0,-61.0,-19.0,-68.0,7
-10.0,-12.0,-12.0,-11.0,-10.0,-11.0,-6.0,-4.0,-4.0,6.0,0.0,-3.0,2.0,6.0,-1.0,-6.0,7
-12.0,-14.0,-12.0,-17.0,-20.0,-24.0,-22.0,-19.0,-17.0,-16.0,-18.0,-19.0,-26.0,-28.0,-24.0,-20.0,7
-50.0,-39.0,-34.0,-14.0,-32.0,-47.0,-58.0,-60.0,5.0,-24.0,-7.0,-13.0,-16.0,-8.0,21.0,33.0,7
17.0,20.0,20.0,17.0,18.0,18.0,18.0,23.0,15.0,25.0,14.0,13.0,15.0,17.0,10.0,14.0,7
16.0,17.0,14.0,17.0,-2.0,6.0,-37.0,-5.0,-7.0,-9.0,6.0,2.0,-10.0,-22.0,-13.0,-17.0,7
3.0,3.0,3.0,2.0,1.0,-1.0,-8.0,-8.0,-5.0,-23.0,-2.0,2.0,0.0,2.0,0.0,-3.0,7
-86.0,-71.0,-70.0,-44.0,-68.0,-99.0,-158.0,-113.0,-35.0,-59.0,-39.0,-47.0,-57.0,-60.0,-36.0,-13.0,7
209.0,159.0,114.0,51.0,108.0,169.0,172.0,253.0,-46.0,-37.0,34.0,53.0,73.0,38.0,-1.0,-90.0,7
-12.0,-14.0,-16.0,-10.0,-9.0,-8.0,-5.0,-7.0,-14.0,-11.0,-13.0,-11.0,-8.0,-10.0,-14.0,-12.0,7
-206.0,-159.0,-64.0,-62.0,-107.0,-228.0,-213.0,-259.0,-11.0,-47.0,-114.0,-74.0,-85.0,-93.0,-32.0,45.0,7
-31.0,-34.0,-27.0,-24.0,-15.0,-21.0,-14.0,-21.0,-7.0,-3.0,-14.0,-16.0,-16.0,-12.0,-9.0,-2.0,7
-91.0,-80.0,-74.0,-45.0,-74.0,-109.0,-160.0,-116.0,-41.0,-58.0,-39.0,-50.0,-65.0,-68.0,-51.0,-24.0,7
-16.0,-10.0,3.0,-1.0,-2.0,-8.0,-19.0,-26.0,10.0,7.0,-12.0,1.0,6.0,13.0,9.0,9.0,7
6.0,6.0,8.0,-2.0,1.0,3.0,2.0,10.0,-13.0,-27.0,-5.0,-5.0,-4.0,-4.0,0.0,-9.0,7
53.0,58.0,56.0,57.0,59.0,61.0,51.0,56.0,46.0,50.0,44.0,44.0,48.0,53.0,35.0,43.0,7
-103.0,-87.0,-53.0,-51.0,-99.0,-134.0,-145.0,-132.0,-29.0,-69.0,-57.0,-54.0,-77.0,-86.0,-37.0,-6.0,7
-57.0,-44.0,-37.0,-12.0,-43.0,-73.0,-94.0,-78.0,3.0,-23.0,-10.0,-20.0,-31.0,-32.0,0.0,30.0,7
5.0,5.0,-1.0,5.0,7.0,6.0,3.0,5.0,5.0,6.0,10.0,6.0,6.0,8.0,10.0,6.0,7
-164.0,-115.0,-26.0,-15.0,-64.0,-167.0,-170.0,-223.0,17.0,-16.0,-75.0,-39.0,-58.0,-62.0,-6.0,63.0,7
-22.0,-21.0,-20.0,-23.0,-23.0,-29.0,-23.0,-27.0,-18.0,-12.0,-11.0,-13.0,-13.0,-17.0,-18.0,-18.0,7
-27.0,-25.0,-21.0,-22.0,-23.0,-36.0,-26.0,-32.0,-9.0,-23.0,-18.0,-13.0,-20.0,-15.0,-1.0,3.0,7
1.0,0.0,-2.0,3.0,-1.0,-1.0,-1.0,2.0,-1.0,0.0,0.0,1.0,1.0,-2.0,-4.0,-3.0,7
33.0,33.0,30.0,30.0,31.0,40.0,33.0,36.0,19.0,14.0,17.0,23.0,26.0,31.0,41.0,21.0,7
127.0,93.0,65.0,11.0,60.0,105.0,119.0,119.0,-49.0,-36.0,-15.0,16.0,32.0,0.0,-31.0,-93.0,7
-14.0,-15.0,-5.0,-11.0,-13.0,-16.0,-14.0,-12.0,-4.0,3.0,-10.0,-10.0,-22.0,-28.0,-19.0,-4.0,7
-1.0,0.0,-1.0,-1.0,-7.0,-10.0,-11.0,-1.0,0.0,0.0,4.0,2.0,3.0,9.0,14.0,2.0,7
-26.0,-27.0,-26.0,-24.0,-24.0,-23.0,-22.0,-21.0,-24.0,-21.0,-24.0,-21.0,-22.0,-28.0,-30.0,-24.0,7
-94.0,-80.0,-45.0,-43.0,-81.0,-108.0,-122.0,-113.0,-22.0,-61.0,-50.0,-43.0,-61.0,-56.0,-3.0,3.0,7
-28.0,-28.0,-30.0,-20.0,-21.0,-17.0,-14.0,-20.0,-2.0,-10.0,-12.0,-22.0,-20.0,-3.0,19.0,5.0,7
-36.0,-26.0,-23.0,-7.0,-26.0,-43.0,-52.0,-47.0,11.0,-1.0,-6.0,-14.0,-13.0,-7.0,6.0,22.0,7
-145.0,-110.0,0.0,-27.0,-83.0,-163.0,-214.0,-190.0,18.0,3.0,-109.0,-35.0,-31.0,-15.0,-6.0,55.0,7
-3.0,-1.0,9.0,2.0,-2.0,-17.0,-6.0,-8.0,-9.0,-20.0,-11.0,-6.0,-15.0,-20.0,-4.0,-4.0,7
1.0,1.0,3.0,0.0,-9.0,-12.0,-15.0,-12.0,-9.0,-15.0,-3.0,-2.0,-10.0,-20.0,-28.0,-11.0,7
35.0,29.0,21.0,-8.0,-6.0,1.0,-46.0,12.0,-47.0,-75.0,-16.0,-15.0,-13.0,-29.0,15.0,-48.0,7
-241.0,-206.0,-104.0,-68.0,-134.0,-238.0,-289.0,-320.0,-17.0,1.0,-84.0,-84.0,-67.0,-56.0,-35.0,32.0,7
10.0,8.0,24.0,12.0,13.0,6.0,13.0,6.0,14.0,15.0,4.0,13.0,13.0,14.0,15.0,17.0,7
157.0,122.0,27.0,41.0,47.0,137.0,94.0,145.0,-77.0,-101.0,98.0,12.0,-29.0,-43.0,1.0,-95.0,7
55.0,32.0,19.0,0.0,37.0,54.0,93.0,47.0,22.0,60.0,24.0,17.0,39.0,56.0,8.0,-3.0,7
-106.0,-84.0,-59.0,-35.0,-92.0,-142.0,-169.0,-112.0,7.0,-30.0,-2.0,-34.0,-54.0,-65.0,-11.0,21.0,7
-22.0,-21.0,-15.0,-16.0,-22.0,-30.0,-31.0,-25.0,-17.0,-6.0,-20.0,-18.0,-28.0,-47.0,-61.0,-21.0,7
5.0,4.0,7.0,4.0,3.0,0.0,1.0,-1.0,-7.0,-14.0,-7.0,-1.0,-3.0,-8.0,-20.0,-8.0,7
-69.0,-61.0,-56.0,-32.0,-48.0,-68.0,-69.0,-81.0,-4.0,-12.0,-28.0,-30.0,-33.0,-28.0,4.0,11.0,7
-84.0,-67.0,-51.0,-34.0,-60.0,-90.0,-96.0,-96.0,0.0,-28.0,-21.0,-32.0,-42.0,-32.0,-1.0,25.0,7
-3.0,-3.0,3.0,-2.0,-3.0,-4.0,-3.0,-1.0,0.0,-4.0,-4.0,0.0,-1.0,1.0,11.0,4.0,7
12.0,16.0,10.0,16.0,12.0,12.0,13.0,12.0,13.0,19.0,21.0,14.0,13.0,16.0,20.0,11.0,7
-7.0,-7.0,-9.0,-5.0,-9.0,-9.0,-3.0,-3.0,1.0,11.0,-2.0,-11.0,-16.0,-25.0,-25.0,-3.0,7
-6.0,-9.0,-15.0,-27.0,-42.0,-33.0,-86.0,-27.0,-46.0,-67.0,-23.0,-38.0,-58.0,-69.0,-39.0,-53.0,7
-11.0,-12.0,-9.0,-20.0,-24.0,-22.0,-23.0,-23.0,-20.0,-27.0,-18.0,-18.0,-21.0,-19.0,-19.0,-21.0,7
17.0,10.0,19.0,8.0,37.0,29.0,116.0,12.0,12.0,39.0,12.0,19.0,37.0,28.0,-41.0,0.0,7
-42.0,-34.0,-27.0,-19.0,-40.0,-45.0,-73.0,-45.0,-10.0,-21.0,-15.0,-23.0,-35.0,-38.0,-13.0,-5.0,7
-70.0,-62.0,-56.0,-33.0,-50.0,-72.0,-77.0,-87.0,4.0,-7.0,-20.0,-28.0,-35.0,-35.0,-11.0,22.0,7
-16.0,-16.0,-18.0,-15.0,-17.0,-20.0,-16.0,-11.0,-22.0,-14.0,-13.0,-15.0,-19.0,-29.0,-35.0,-24.0,7
0.0,0.0,1.0,0.0,3.0,6.0,7.0,5.0,2.0,6.0,6.0,5.0,7.0,7.0,7.0,2.0,7
-19.0,-20.0,-21.0,-10.0,-14.0,-19.0,-16.0,-14.0,-13.0,-7.0,-15.0,-8.0,-5.0,-9.0,-20.0,-11.0,7
-273.0,-217.0,-118.0,-103.0,-164.0,-312.0,-356.0,-247.0,56.0,37.0,-62.0,-95.0,-94.0,-107.0,2.0,151.0,7
137.0,103.0,76.0,26.0,82.0,136.0,128.0,131.0,-49.0,-30.0,15.0,30.0,44.0,35.0,-11.0,-92.0,7
-15.0,-15.0,-6.0,-10.0,-18.0,-23.0,-6.0,-17.0,-6.0,3.0,-8.0,-9.0,-11.0,-13.0,-20.0,-6.0,7
-84.0,-67.0,-56.0,-34.0,-64.0,-101.0,-155.0,-108.0,-14.0,-47.0,-18.0,-35.0,-46.0,-36.0,14.0,11.0,7
-21.0,0.0,16.0,14.0,-16.0,-35.0,-51.0,-49.0,35.0,10.0,18.0,6.0,-5.0,2.0,43.0,48.0,7
3.0,0.0,-2.0,-2.0,0.0,2.0,8.0,6.0,9.0,10.0,5.0,3.0,5.0,13.0,21.0,12.0,7
-6.0,-7.0,-7.0,-8.0,-7.0,-7.0,1.0,-2.0,-14.0,-12.0,-18.0,-19.0,-22.0,-17.0,-18.0,-12.0,7
3.0,3.0,17.0,3.0,3.0,-4.0,4.0,-1.0,0.0,2.0,-9.0,1.0,-2.0,-6.0,-10.0,1.0,7
23.0,28.0,26.0,25.0,21.0,22.0,26.0,26.0,4.0,2.0,6.0,7.0,5.0,1.0,-1.0,1.0,7
185.0,136.0,87.0,9.0,49.0,120.0,113.0,238.0,-58.0,-64.0,-1.0,1.0,-3.0,-5.0,23.0,-84.0,7
-1.0,0.0,-2.0,-2.0,0.0,0.0,3.0,3.0,2.0,7.0,0.0,1.0,6.0,4.0,0.0,1.0,7
278.0,220.0,110.0,88.0,144.0,285.0,281.0,298.0,-89.0,-85.0,52.0,58.0,48.0,46.0,4.0,-153.0,7
3.0,3.0,2.0,2.0,4.0,7.0,6.0,7.0,6.0,14.0,9.0,6.0,4.0,5.0,17.0,7.0,7
-12.0,-15.0,-18.0,-12.0,-10.0,-9.0,-3.0,-7.0,-7.0,-6.0,-8.0,-8.0,-9.0,-9.0,-3.0,-5.0,7
-8.0,-6.0,-4.0,-6.0,-5.0,-6.0,-3.0,-2.0,-8.0,-4.0,-4.0,-6.0,-4.0,-2.0,-7.0,-7.0,7
-35.0,-31.0,-25.0,-10.0,-26.0,-40.0,-37.0,-37.0,0.0,0.0,-19.0,-21.0,-26.0,-27.0,-20.0,6.0,7
-24.0,-24.0,-30.0,-18.0,-16.0,-20.0,-21.0,-21.0,-10.0,-6.0,-11.0,-15.0,-19.0,-18.0,-3.0,-3.0,7
7.0,6.0,6.0,15.0,14.0,14.0,12.0,12.0,22.0,42.0,16.0,12.0,14.0,12.0,11.0,21.0,7
9.0,10.0,10.0,6.0,6.0,8.0,11.0,11.0,6.0,7.0,7.0,5.0,2.0,-3.0,-8.0,4.0,7
30.0,30.0,27.0,27.0,29.0,29.0,34.0,35.0,29.0,38.0,40.0,32.0,34.0,34.0,17.0,30.0,7
-57.0,-54.0,-15.0,-22.0,-43.0,-89.0,-83.0,-69.0,1.0,20.0,-56.0,-18.0,-18.0,-14.0,-10.0,15.0,7
-44.0,-39.0,25.0,-32.0,-42.0,-94.0,-118.0,-76.0,-29.0,-23.0,-73.0,-45.0,-31.0,-17.0,-14.0,-15.0,7
51.0,44.0,46.0,36.0,68.0,66.0,139.0,49.0,29.0,54.0,32.0,43.0,60.0,46.0,-12.0,15.0,7
148.0,114.0,27.0,56.0,76.0,162.0,170.0,177.0,-37.0,-20.0,56.0,39.0,30.0,23.0,4.0,-71.0,7
23.0,3.0,-5.0,-23.0,22.0,31.0,56.0,19.0,-31.0,0.0,-10.0,-13.0,-6.0,-28.0,-62.0,-58.0,7
25.0,17.0,10.0,10.0,7.0,27.0,11.0,12.0,-20.0,-24.0,0.0,2.0,1.0,0.0,-1.0,-21.0,7
-6.0,-7.0,-7.0,-10.0,-2.0,2.0,6.0,0.0,-3.0,-3.0,-5.0,-5.0,-2.0,2.0,13.0,-1.0,7
165.0,122.0,95.0,40.0,94.0,150.0,32.0,177.0,-66.0,-28.0,17.0,41.0,64.0,40.0,-8.0,-124.0,7
40.0,41.0,46.0,38.0,23.0,14.0,14.0,22.0,29.0,35.0,20.0,23.0,21.0,18.0,24.0,29.0,7
-17.0,-19.0,-21.0,-19.0,-17.0,-18.0,-14.0,-12.0,-15.0,-13.0,-17.0,-20.0,-16.0,-17.0,-18.0,-15.0,7
19.0,13.0,4.0,-25.0,-29.0,-21.0,-67.0,-2.0,-59.0,-91.0,-29.0,-36.0,-40.0,-52.0,4.0,-56.0,7
1.0,-1.0,2.0,-2.0,-1.0,-2.0,0.0,0.0,3.0,4.0,2.0,1.0,2.0,4.0,9.0,6.0,7
19.0,19.0,21.0,19.0,21.0,23.0,27.0,25.0,17.0,13.0,12.0,16.0,20.0,27.0,30.0,19.0,7
-377.0,-293.0,-171.0,-148.0,-235.0,-403.0,-401.0,-331.0,65.0,37.0,-72.0,-134.0,-113.0,-96.0,22.0,169.0,7
-24.0,-25.0,-32.0,-17.0,-19.0,-23.0,-19.0,-19.0,-1.0,-3.0,-6.0,-16.0,-14.0,-10.0,-2.0,3.0,7
-12.0,-13.0,-18.0,-11.0,-12.0,-10.0,-12.0,-10.0,-9.0,-6.0,-7.0,-8.0,-7.0,-3.0,-6.0,-9.0,7
15.0,16.0,18.0,14.0,10.0,12.0,12.0,14.0,16.0,20.0,14.0,15.0,10.0,10.0,13.0,15.0,7
26.0,27.0,29.0,35.0,42.0,39.0,36.0,39.0,34.0,44.0,31.0,35.0,47.0,60.0,70.0,36.0,7
-33.0,-31.0,2.0,-22.0,-38.0,-54.0,-46.0,-51.0,-15.0,-33.0,-51.0,-21.0,-63.0,-79.0,0.0,-4.0,7
3.0,3.0,1.0,6.0,5.0,6.0,5.0,3.0,12.0,14.0,19.0,10.0,10.0,13.0,17.0,14.0,7
-73.0,-57.0,-52.0,-22.0,-51.0,-74.0,-95.0,-98.0,1.0,-17.0,-7.0,-22.0,-32.0,-33.0,-16.0,16.0,7
41.0,31.0,21.0,9.0,16.0,45.0,28.0,27.0,-11.0,-15.0,7.0,5.0,7.0,18.0,29.0,-11.0,7
10.0,12.0,12.0,10.0,8.0,11.0,15.0,13.0,-4.0,-10.0,2.0,4.0,7.0,15.0,15.0,-4.0,7
-311.0,-232.0,-175.0,-110.0,-178.0,-312.0,-342.0,-280.0,84.0,58.0,13.0,-86.0,-60.0,-33.0,5.0,171.0,7
10.0,11.0,11.0,8.0,11.0,11.0,13.0,14.0,5.0,8.0,6.0,5.0,6.0,6.0,5.0,5.0,7
34.0,26.0,16.0,10.0,5.0,20.0,-42.0,35.0,-55.0,-70.0,-1.0,2.0,3.0,-22.0,-5.0,-70.0,7
-570.0,-450.0,-293.0,-128.0,-284.0,-508.0,-577.0,-604.0,118.0,104.0,-50.0,-115.0,-114.0,-115.0,-25.0,248.0,7
56.0,38.0,25.0,10.0,43.0,51.0,86.0,51.0,11.0,49.0,23.0,20.0,32.0,39.0,12.0,-14.0,7
31.0,24.0,14.0,12.0,14.0,42.0,-9.0,18.0,-9.0,-13.0,10.0,9.0,7.0,8.0,27.0,-20.0,7
-7.0,-8.0,-6.0,-11.0,-10.0,-11.0,-9.0,-7.0,-5.0,-3.0,-8.0,-7.0,-7.0,-8.0,-6.0,-5.0,7
9.0,12.0,17.0,9.0,4.0,-1.0,-11.0,-7.0,-8.0,-32.0,-9.0,-1.0,-4.0,-2.0,0.0,-6.0,7
84.0,69.0,55.0,50.0,133.0,163.0,303.0,98.0,42.0,106.0,43.0,70.0,89.0,89.0,-34.0,16.0,7
-1.0,-1.0,-1.0,4.0,4.0,0.0,-5.0,0.0,7.0,17.0,13.0,8.0,9.0,7.0,-1.0,9.0,7
14.0,16.0,19.0,16.0,14.0,12.0,9.0,10.0,7.0,-2.0,6.0,12.0,12.0,9.0,-4.0,6.0,7
42.0,44.0,47.0,47.0,39.0,38.0,42.0,40.0,37.0,34.0,36.0,37.0,24.0,0.0,32.0,35.0,7
4.0,4.0,4.0,4.0,4.0,7.0,7.0,7.0,5.0,17.0,10.0,7.0,11.0,13.0,4.0,4.0,7
27.0,29.0,27.0,34.0,30.0,28.0,31.0,31.0,27.0,37.0,40.0,37.0,38.0,37.0,20.0,27.0,7
2.0,-2.0,-4.0,-7.0,-6.0,-6.0,-6.0,4.0,-9.0,-19.0,-14.0,-3.0,-7.0,-4.0,6.0,-5.0,7
40.0,25.0,-23.0,-18.0,-8.0,35.0,28.0,70.0,-13.0,-4.0,9.0,-22.0,-26.0,-24.0,21.0,-10.0,7
-449.0,-331.0,-162.0,-57.0,-171.0,-366.0,-509.0,-633.0,65.0,21.0,-71.0,-62.0,-56.0,-45.0,-29.0,148.0,7
-14.0,-8.0,34.0,-16.0,-37.0,-69.0,-58.0,-33.0,-18.0,-21.0,-41.0,-20.0,-23.0,-7.0,-4.0,-10.0,7
91.0,73.0,58.0,54.0,136.0,168.0,308.0,104.0,56.0,116.0,49.0,74.0,92.0,100.0,-14.0,31.0,7
-67.0,-52.0,-46.0,-15.0,-39.0,-59.0,-81.0,-87.0,9.0,-14.0,-2.0,-17.0,-22.0,-14.0,12.0,31.0,7
-14.0,-17.0,-14.0,-13.0,-12.0,-14.0,-13.0,-12.0,-13.0,-8.0,-12.0,-10.0,-13.0,-15.0,-16.0,-12.0,7
-22.0,-18.0,-21.0,-8.0,-12.0,-19.0,-30.0,-30.0,2.0,-7.0,3.0,-5.0,-10.0,-10.0,-6.0,12.0,7
-12.0,-14.0,-15.0,-17.0,-7.0,-1.0,0.0,-2.0,-9.0,-6.0,-12.0,-11.0,-4.0,2.0,6.0,-5.0,7
14.0,12.0,1.0,-16.0,-31.0,-19.0,-73.0,-8.0,-56.0,-94.0,-24.0,-27.0,-35.0,-47.0,-10.0,-52.0,7
5.0,4.0,3.0,6.0,3.0,4.0,8.0,10.0,5.0,9.0,6.0,8.0,9.0,9.0,6.0,7.0,7
7.0,14.0,8.0,22.0,11.0,-1.0,-7.0,-7.0,19.0,24.0,21.0,13.0,8.0,5.0,6.0,23.0,7
29.0,29.0,26.0,27.0,31.0,36.0,38.0,38.0,27.0,29.0,26.0,24.0,29.0,33.0,47.0,29.0,7
-26.0,-28.0,-30.0,-23.0,-16.0,-17.0,-18.0,-20.0,-23.0,-21.0,-22.0,-20.0,-18.0,-19.0,-16.0,-21.0,7
-26.0,-19.0,-16.0,-1.0,-14.0,-29.0,-26.0,-27.0,8.0,9.0,-10.0,-12.0,-16.0,-12.0,0.0,17.0,7
3.0,12.0,8.0,28.0,15.0,-3.0,-10.0,-9.0,27.0,27.0,28.0,19.0,16.0,10.0,8.0,32.0,7
-6.0,-5.0,-10.0,-15.0,-31.0,-29.0,-86.0,-25.0,-37.0,-59.0,-10.0,-20.0,-27.0,-31.0,-13.0,-43.0,7
-21.0,-15.0,-15.0,2.0,-12.0,-25.0,-29.0,-26.0,14.0,5.0,-5.0,-15.0,-17.0,-15.0,-2.0,20.0,7
-10.0,-7.0,-10.0,-8.0,-8.0,-8.0,-4.0,-8.0,-2.0,4.0,2.0,-3.0,3.0,8.0,-9.0,0.0,7
1.0,0.0,-1.0,-1.0,3.0,4.0,5.0,3.0,0.0,5.0,3.0,2.0,-1.0,-7.0,-1.0,-1.0,7
-78.0,-55.0,-31.0,-11.0,-62.0,-100.0,-112.0,-73.0,7.0,-29.0,2.0,-24.0,-33.0,-43.0,13.0,21.0,7
-17.0,-16.0,-16.0,-8.0,-5.0,-13.0,-4.0,-16.0,-4.0,-10.0,-10.0,-7.0,-8.0,-3.0,7.0,1.0,7
-7.0,-8.0,-9.0,-6.0,-7.0,-8.0,-6.0,-5.0,-5.0,-2.0,1.0,-5.0,-5.0,-9.0,-8.0,-4.0,7
-35.0,-22.0,-22.0,-1.0,-29.0,-54.0,-102.0,-60.0,7.0,-10.0,5.0,-6.0,-18.0,-10.0,12.0,26.0,7
-42.0,-36.0,-5.0,-6.0,-36.0,-79.0,-73.0,-68.0,12.0,32.0,-32.0,-3.0,-10.0,-7.0,-6.0,20.0,7
192.0,140.0,91.0,21.0,96.0,176.0,168.0,220.0,-108.0,-96.0,-13.0,17.0,40.0,9.0,-27.0,-159.0,7
-39.0,-34.0,-39.0,-24.0,-31.0,-43.0,-39.0,-39.0,-3.0,-9.0,-12.0,-22.0,-24.0,-23.0,-5.0,7.0,7
29.0,32.0,29.0,25.0,26.0,28.0,27.0,27.0,11.0,12.0,12.0,13.0,12.0,8.0,1.0,8.0,7
-8.0,-9.0,-19.0,-2.0,6.0,6.0,3.0,6.0,8.0,21.0,3.0,1.0,14.0,23.0,13.0,11.0,7
8.0,4.0,-3.0,5.0,9.0,13.0,14.0,19.0,10.0,19.0,19.0,7.0,14.0,17.0,5.0,11.0,7
35.0,23.0,-23.0,-17.0,-6.0,34.0,29.0,71.0,-9.0,0.0,10.0,-22.0,-26.0,-23.0,23.0,-4.0,7
142.0,109.0,89.0,27.0,58.0,130.0,100.0,124.0,-65.0,-45.0,-13.0,22.0,27.0,21.0,31.0,-99.0,7
-6.0,-1.0,7.0,8.0,14.0,11.0,7.0,5.0,18.0,22.0,7.0,8.0,16.0,27.0,27.0,21.0,7
-15.0,-18.0,-20.0,-11.0,-5.0,-7.0,-7.0,-8.0,-11.0,-11.0,-10.0,-6.0,0.0,2.0,-1.0,-10.0,7
-237.0,-185.0,-168.0,-96.0,-147.0,-237.0,-263.0,-176.0,36.0,36.0,-22.0,-100.0,-94.0,-82.0,-7.0,105.0,7
160.0,119.0,16.0,36.0,48.0,149.0,109.0,149.0,-81.0,-105.0,92.0,17.0,-26.0,-47.0,2.0,-103.0,7
-22.0,-24.0,-23.0,-31.0,-24.0,-19.0,-24.0,-21.0,-23.0,-28.0,-29.0,-21.0,-23.0,-20.0,-5.0,-21.0,7
-18.0,-19.0,-18.0,-22.0,-25.0,-25.0,-23.0,-20.0,-31.0,-35.0,-21.0,-20.0,-25.0,-29.0,-35.0,-29.0,7
-8.0,-4.0,-6.0,-6.0,-14.0,-15.0,-13.0,-11.0,-21.0,-30.0,-16.0,-15.0,-15.0,-15.0,-11.0,-21.0,7
20.0,3.0,-4.0,2.0,56.0,77.0,204.0,36.0,6.0,73.0,23.0,35.0,81.0,122.0,-43.0,-11.0,7
-20.0,-20.0,-19.0,-19.0,-17.0,-18.0,-14.0,-16.0,-19.0,-19.0,-16.0,-15.0,-15.0,-15.0,-24.0,-18.0,7
-12.0,-16.0,1.0,-20.0,-27.0,-33.0,-29.0,-26.0,-32.0,-47.0,-43.0,-17.0,-25.0,-27.0,-18.0,-29.0,7
-16.0,-17.0,-17.0,-16.0,-19.0,-20.0,-23.0,-14.0,-17.0,-18.0,-13.0,-13.0,-18.0,-20.0,-20.0,-15.0,7
-22.0,-20.0,-12.0,-11.0,-11.0,-14.0,-21.0,-19.0,5.0,1.0,-11.0,-2.0,-4.0,-7.0,-13.0,3.0,7
-9.0,-8.0,-4.0,-9.0,-3.0,-2.0,-5.0,-11.0,-11.0,-19.0,-11.0,-4.0,1.0,8.0,5.0,-9.0,7
-72.0,-72.0,-7.0,-44.0,-65.0,-114.0,-119.0,-95.0,-40.0,-18.0,-90.0,-62.0,-44.0,-32.0,-16.0,-13.0,7
0.0,0.0,1.0,0.0,2.0,7.0,9.0,5.0,3.0,7.0,7.0,5.0,6.0,7.0,14.0,6.0,7
-35.0,-34.0,-37.0,-31.0,-33.0,-31.0,-37.0,-32.0,-34.0,-35.0,-32.0,-33.0,-32.0,-33.0,-36.0,-35.0,7
8.0,8.0,8.0,6.0,9.0,15.0,17.0,15.0,2.0,3.0,0.0,1.0,1.0,-1.0,5.0,3.0,7
-3.0,-3.0,-3.0,0.0,-2.0,-5.0,-7.0,-4.0,-5.0,-4.0,-1.0,0.0,-2.0,-7.0,-12.0,-5.0,7
23.0,25.0,27.0,23.0,20.0,19.0,17.0,24.0,23.0,27.0,21.0,19.0,13.0,8.0,0.0,18.0,7
25.0,23.0,22.0,24.0,29.0,36.0,38.0,34.0,25.0,34.0,23.0,19.0,25.0,32.0,30.0,27.0,7
48.0,46.0,41.0,34.0,21.0,35.0,-69.0,41.0,18.0,13.0,37.0,38.0,40.0,21.0,14.0,3.0,7
-2.0,6.0,-8.0,-3.0,-21.0,0.0,-63.0,1.0,-54.0,-77.0,-15.0,-19.0,-31.0,-49.0,-20.0,-50.0,7
-47.0,-37.0,-34.0,-22.0,-58.0,-78.0,-100.0,-70.0,-20.0,-45.0,-14.0,-31.0,-54.0,-67.0,-20.0,-4.0,7
-97.0,-80.0,-61.0,-44.0,-86.0,-109.0,-138.0,-104.0,-4.0,-32.0,-12.0,-40.0,-57.0,-56.0,7.0,25.0,7
2.0,5.0,5.0,3.0,6.0,6.0,5.0,6.0,0.0,1.0,0.0,0.0,1.0,3.0,0.0,-1.0,7
18.0,12.0,19.0,9.0,39.0,36.0,120.0,18.0,11.0,37.0,8.0,18.0,37.0,31.0,-38.0,0.0,7
-256.0,-200.0,-176.0,-103.0,-162.0,-257.0,-281.0,-197.0,45.0,43.0,-22.0,-99.0,-82.0,-63.0,-2.0,118.0,7
6.0,7.0,8.0,10.0,7.0,7.0,6.0,6.0,3.0,4.0,5.0,4.0,2.0,3.0,6.0,3.0,7
-13.0,-14.0,-15.0,-11.0,-11.0,-11.0,-18.0,-13.0,-4.0,4.0,-3.0,-4.0,-2.0,-5.0,-25.0,-6.0,7
-10.0,-10.0,-13.0,-17.0,-17.0,-19.0,-7.0,-9.0,-11.0,-15.0,-13.0,-15.0,-20.0,-18.0,-11.0,-8.0,7
-14.0,-14.0,-14.0,-7.0,-4.0,-4.0,-5.0,-8.0,-7.0,-4.0,-8.0,-5.0,-2.0,-1.0,-4.0,-5.0,7
16.0,16.0,13.0,11.0,16.0,17.0,14.0,14.0,14.0,17.0,14.0,13.0,10.0,8.0,7.0,12.0,7
-74.0,-63.0,-60.0,-37.0,-49.0,-70.0,-84.0,-92.0,0.0,-12.0,-22.0,-32.0,-35.0,-31.0,-9.0,17.0,7
-8.0,-8.0,-8.0,-3.0,-7.0,-9.0,-6.0,-6.0,-4.0,2.0,-12.0,-7.0,-4.0,-4.0,-10.0,0.0,7
29.0,29.0,21.0,32.0,33.0,36.0,39.0,35.0,29.0,32.0,36.0,29.0,27.0,31.0,30.0,27.0,7
-56.0,-47.0,-42.0,-25.0,-60.0,-82.0,-110.0,-81.0,-22.0,-48.0,-15.0,-31.0,-45.0,-48.0,-3.0,-7.0,7
-18.0,-19.0,-17.0,-17.0,-14.0,-14.0,-15.0,-16.0,-18.0,-15.0,-17.0,-11.0,-11.0,-14.0,-15.0,-15.0,7
92.0,79.0,62.0,48.0,48.0,87.0,28.0,64.0,3.0,3.0,40.0,35.0,25.0,25.0,39.0,-18.0,7
106.0,72.0,44.0,0.0,3.0,39.0,-23.0,176.0,-13.0,-25.0,9.0,4.0,-4.0,-30.0,14.0,-22.0,7
-27.0,-27.0,-31.0,-15.0,-16.0,-23.0,-37.0,-35.0,5.0,-4.0,9.0,-6.0,-9.0,-3.0,10.0,16.0,7
-2.0,-5.0,-4.0,-8.0,-7.0,-6.0,-4.0,-3.0,-4.0,-1.0,-4.0,-7.0,-10.0,-8.0,-2.0,-5.0,7
4.0,4.0,1.0,5.0,7.0,9.0,13.0,11.0,-4.0,-4.0,0.0,-2.0,2.0,1.0,5.0,-5.0,7
-80.0,-55.0,-31.0,-14.0,-72.0,-120.0,-135.0,-88.0,5.0,-31.0,3.0,-23.0,-39.0,-56.0,-10.0,14.0,7
-229.0,-179.0,-45.0,-70.0,-136.0,-266.0,-289.0,-216.0,51.0,43.0,-186.0,-61.0,-82.0,-91.0,4.0,123.0,7
19.0,21.0,25.0,9.0,8.0,10.0,15.0,20.0,-5.0,-20.0,-6.0,1.0,-1.0,1.0,2.0,-3.0,7
74.0,53.0,-32.0,8.0,4.0,83.0,40.0,59.0,-78.0,-101.0,65.0,-10.0,-20.0,-7.0,-28.0,-93.0,7
-40.0,-34.0,-24.0,-27.0,-33.0,-51.0,-54.0,-53.0,3.0,-10.0,-24.0,-19.0,-28.0,-27.0,-6.0,18.0,7
-355.0,-271.0,-105.0,-84.0,-176.0,-368.0,-420.0,-348.0,92.0,66.0,-164.0,-77.0,-107.0,-131.0,-8.0,197.0,7
131.0,102.0,72.0,35.0,68.0,118.0,72.0,125.0,-71.0,-70.0,12.0,27.0,34.0,-3.0,-24.0,-109.0,7
-176.0,-144.0,-152.0,-89.0,-119.0,-178.0,-213.0,-123.0,4.0,4.0,-10.0,-90.0,-88.0,-84.0,-10.0,54.0,7
-9.0,-7.0,-9.0,-2.0,-6.0,-11.0,-5.0,-1.0,-5.0,-3.0,-2.0,-3.0,-5.0,-11.0,-15.0,-7.0,7
-9.0,-10.0,-11.0,-13.0,-9.0,-8.0,-6.0,-6.0,-4.0,0.0,-3.0,-3.0,-1.0,0.0,-3.0,-4.0,7
13.0,14.0,14.0,5.0,3.0,1.0,-3.0,2.0,-11.0,-33.0,-7.0,-3.0,-7.0,-8.0,-7.0,-9.0,7
42.0,30.0,27.0,-8.0,37.0,57.0,79.0,56.0,-3.0,17.0,7.0,17.0,50.0,49.0,-36.0,-25.0,7
-488.0,-373.0,-211.0,-87.0,-210.0,-468.0,-476.0,-538.0,91.0,24.0,-97.0,-85.0,-97.0,-111.0,-18.0,206.0,7
-16.0,-16.0,-15.0,-15.0,-10.0,-7.0,-3.0,0.0,-1.0,3.0,-9.0,-10.0,-9.0,-6.0,-3.0,-1.0,7
-12.0,-11.0,-12.0,-12.0,-13.0,-13.0,-3.0,-4.0,-25.0,-27.0,-17.0,-14.0,-16.0,-17.0,-15.0,-22.0,7
-18.0,-19.0,-12.0,-9.0,2.0,3.0,0.0,-7.0,9.0,16.0,-1.0,2.0,15.0,36.0,39.0,13.0,7
-2.0,-2.0,2.0,-10.0,-17.0,-17.0,-28.0,-15.0,-19.0,-19.0,-19.0,-12.0,-23.0,-35.0,-47.0,-23.0,7
