0,1,2,3,4,5,6,7,8,9,10,11,12,13,14,15,16
-16.0,121.0,-477.0,107.0,28.0,6.0,3.0,-6.0,-15.0,-13.0,-23.0,-45.0,-24.0,-20.0,-5.0,-12.0,1
-6.0,115.0,-391.0,90.0,32.0,-14.0,3.0,3.0,-50.0,-32.0,-37.0,-49.0,-37.0,-41.0,-25.0,-45.0,1
-19.0,-25.0,-21.0,-31.0,-27.0,-22.0,-23.0,-22.0,-1.0,-15.0,-17.0,-18.0,-17.0,-14.0,-6.0,0.0,1
-2.0,75.0,-266.0,59.0,30.0,-72.0,-46.0,-29.0,-4.0,0.0,13.0,-1.0,-7.0,-5.0,-8.0,-9.0,1
43.0,-162.0,711.0,-116.0,0.0,35.0,48.0,58.0,49.0,55.0,80.0,89.0,70.0,52.0,23.0,36.0,1
16.0,31.0,-5.0,25.0,23.0,19.0,25.0,23.0,13.0,11.0,8.0,5.0,4.0,-8.0,-16.0,14.0,1
-14.0,104.0,-369.0,64.0,-166.0,-179.0,-239.0,-273.0,163.0,65.0,17.0,25.0,8.0,16.0,59.0,163.0,1
-15.0,69.0,-280.0,31.0,-7.0,-21.0,-28.0,-35.0,-30.0,-51.0,-37.0,-36.0,-19.0,-84.0,-41.0,-15.0,1
17.0,8.0,48.0,14.0,14.0,10.0,11.0,12.0,15.0,17.0,20.0,20.0,17.0,14.0,10.0,11.0,1
-21.0,5.0,-173.0,5.0,-19.0,-29.0,-31.0,-32.0,-38.0,-37.0,-33.0,-43.0,-35.0,-33.0,-26.0,-37.0,1
-6.0,56.0,-177.0,47.0,11.0,0.0,-2.0,-2.0,-26.0,-17.0,-16.0,-14.0,-12.0,-11.0,-3.0,-19.0,1
-26.0,-42.0,20.0,-34.0,-20.0,-20.0,-23.0,-25.0,-21.0,-25.0,-29.0,-30.0,-24.0,-20.0,-13.0,-15.0,1
17.0,-177.0,690.0,-118.0,-15.0,27.0,34.0,63.0,89.0,78.0,105.0,133.0,72.0,68.0,50.0,66.0,1
4.0,10.0,8.0,6.0,5.0,3.0,5.0,3.0,25.0,12.0,9.0,6.0,6.0,9.0,23.0,24.0,1
2.0,-24.0,126.0,-49.0,-48.0,-69.0,-70.0,-64.0,42.0,28.0,40.0,53.0,32.0,27.0,15.0,23.0,1
21.0,32.0,-80.0,37.0,32.0,31.0,31.0,13.0,-2.0,-8.0,-18.0,-47.0,-16.0,-12.0,-7.0,9.0,1
-3.0,-89.0,372.0,-68.0,-22.0,18.0,37.0,50.0,58.0,60.0,85.0,92.0,59.0,47.0,20.0,51.0,1
56.0,75.0,-31.0,60.0,47.0,46.0,59.0,56.0,14.0,11.0,9.0,17.0,21.0,13.0,0.0,24.0,1
7.0,95.0,-305.0,79.0,141.0,77.0,145.0,148.0,25.0,21.0,-3.0,-11.0,-13.0,-10.0,-5.0,19.0,1
5.0,19.0,-66.0,29.0,39.0,11.0,24.0,28.0,2.0,5.0,4.0,-5.0,-1.0,-3.0,16.0,9.0,1
-55.0,-41.0,-90.0,-41.0,-50.0,-52.0,-58.0,-58.0,-35.0,-37.0,-37.0,-34.0,-35.0,-34.0,-29.0,-40.0,1
2.0,8.0,3.0,-13.0,-11.0,-8.0,-10.0,-12.0,-2.0,-7.0,0.0,-6.0,-8.0,-8.0,-18.0,4.0,1
23.0,179.0,-448.0,136.0,43.0,15.0,6.0,6.0,-16.0,-17.0,11.0,-37.0,-8.0,-5.0,5.0,7.0,1
50.0,78.0,99.0,38.0,27.0,24.0,26.0,22.0,9.0,11.0,7.0,12.0,12.0,8.0,-9.0,10.0,1
-20.0,-20.0,-3.0,-8.0,0.0,3.0,1.0,2.0,2.0,3.0,-2.0,-1.0,-2.0,-4.0,-19.0,-3.0,1
-10.0,61.0,-280.0,45.0,29.0,2.0,-1.0,-2.0,8.0,8.0,-1.0,-47.0,-32.0,-24.0,7.0,18.0,1
8.0,6.0,42.0,4.0,16.0,18.0,23.0,24.0,2.0,8.0,6.0,5.0,2.0,-7.0,-27.0,-7.0,1
68.0,95.0,-160.0,89.0,48.0,42.0,24.0,7.0,70.0,35.0,28.0,17.0,27.0,24.0,25.0,71.0,1
-2.0,10.0,-60.0,-7.0,-3.0,-22.0,-8.0,-5.0,-13.0,-8.0,-11.0,-10.0,-8.0,-12.0,-3.0,-14.0,1
25.0,34.0,-17.0,23.0,22.0,21.0,25.0,24.0,2.0,2.0,2.0,3.0,5.0,4.0,12.0,7.0,1
11.0,79.0,-144.0,62.0,20.0,10.0,4.0,3.0,-1.0,2.0,5.0,4.0,1.0,0.0,-5.0,-1.0,1
33.0,114.0,-276.0,100.0,157.0,259.0,283.0,261.0,-8.0,-11.0,14.0,-45.0,-12.0,-3.0,17.0,15.0,1
5.0,-73.0,244.0,-53.0,51.0,-64.0,3.0,31.0,33.0,17.0,1.0,34.0,11.0,2.0,-9.0,13.0,1
8.0,55.0,-132.0,44.0,16.0,11.0,11.0,12.0,-3.0,-4.0,0.0,-4.0,-1.0,1.0,1.0,0.0,1
-15.0,128.0,-413.0,90.0,26.0,-11.0,-5.0,-6.0,-43.0,-27.0,-32.0,-47.0,-35.0,-35.0,-24.0,-45.0,1
-11.0,64.0,-335.0,64.0,9.0,-3.0,-6.0,-20.0,-18.0,-11.0,-31.0,-48.0,-27.0,-22.0,-2.0,-14.0,1
12.0,-12.0,4.0,-4.0,10.0,9.0,9.0,9.0,4.0,4.0,2.0,-2.0,-2.0,2.0,8.0,5.0,1
0.0,61.0,-190.0,55.0,20.0,-6.0,-7.0,-4.0,0.0,11.0,9.0,2.0,3.0,3.0,2.0,-11.0,1
-26.0,-7.0,-37.0,-3.0,-15.0,-20.0,-22.0,-20.0,-6.0,-8.0,-11.0,-9.0,-7.0,-1.0,5.0,-7.0,1
1.0,58.0,-156.0,51.0,65.0,39.0,63.0,56.0,-43.0,-18.0,-34.0,-41.0,-30.0,-35.0,-31.0,-43.0,1
1.0,33.0,-82.0,9.0,-6.0,-8.0,-3.0,-3.0,-8.0,4.0,-5.0,-7.0,-7.0,-14.0,-37.0,-15.0,1
25.0,49.0,-33.0,40.0,19.0,21.0,25.0,24.0,21.0,17.0,17.0,17.0,15.0,12.0,18.0,23.0,1
15.0,62.0,-260.0,58.0,-99.0,-47.0,-114.0,-132.0,-57.0,-37.0,-50.0,-68.0,-37.0,-23.0,-27.0,-47.0,1
-22.0,-49.0,-50.0,-20.0,0.0,-1.0,16.0,4.0,-32.0,-33.0,-47.0,-58.0,-48.0,-45.0,-24.0,-14.0,1
-29.0,-29.0,-25.0,-20.0,-19.0,-24.0,-31.0,-31.0,-13.0,-12.0,-14.0,-14.0,-13.0,-13.0,-12.0,-17.0,1
11.0,11.0,41.0,11.0,15.0,17.0,17.0,17.0,13.0,12.0,15.0,15.0,15.0,19.0,25.0,17.0,1
-14.0,-16.0,12.0,-10.0,-6.0,-4.0,-8.0,-8.0,10.0,1.0,-1.0,0.0,-1.0,-4.0,-6.0,4.0,1
1.0,104.0,-324.0,92.0,45.0,195.0,78.0,41.0,-27.0,-28.0,6.0,-59.0,-28.0,-34.0,-47.0,-21.0,1
7.0,96.0,-250.0,82.0,68.0,79.0,74.0,63.0,-42.0,-18.0,-26.0,-43.0,-24.0,-25.0,-22.0,-37.0,1
-4.0,152.0,-528.0,114.0,79.0,26.0,48.0,48.0,-74.0,-48.0,-52.0,-61.0,-41.0,-42.0,-57.0,-63.0,1
22.0,23.0,116.0,58.0,59.0,96.0,95.0,106.0,70.0,89.0,64.0,148.0,76.0,53.0,6.0,45.0,1
4.0,-76.0,116.0,-57.0,-27.0,-24.0,-35.0,-32.0,-17.0,-23.0,-33.0,8.0,-11.0,-1.0,12.0,-6.0,1
-20.0,75.0,-395.0,53.0,-12.0,-26.0,-24.0,-35.0,-32.0,-30.0,-44.0,-72.0,-44.0,-36.0,-22.0,-28.0,1
-35.0,-18.0,-273.0,-2.0,-91.0,14.0,-65.0,-90.0,-87.0,-64.0,-71.0,-89.0,-61.0,-55.0,-55.0,-70.0,1
-10.0,-82.0,4.0,-31.0,55.0,82.0,78.0,62.0,-67.0,-43.0,-57.0,-67.0,-41.0,-29.0,-22.0,-59.0,1
-1.0,-4.0,-11.0,-7.0,-5.0,-11.0,-15.0,-14.0,-7.0,-6.0,-6.0,-3.0,-4.0,1.0,6.0,-5.0,1
4.0,14.0,-84.0,14.0,7.0,7.0,-4.0,-19.0,2.0,-9.0,-20.0,-45.0,-17.0,0.0,26.0,9.0,1
-41.0,-47.0,-107.0,-60.0,-62.0,-66.0,-74.0,-66.0,-47.0,-55.0,-56.0,-63.0,-64.0,-56.0,-27.0,-53.0,1
14.0,27.0,-88.0,49.0,70.0,46.0,70.0,68.0,-14.0,4.0,-1.0,-18.0,-7.0,-10.0,-4.0,-15.0,1
16.0,36.0,-89.0,42.0,33.0,23.0,24.0,13.0,-21.0,-17.0,-18.0,-39.0,-7.0,5.0,20.0,2.0,1
-19.0,-35.0,-78.0,-14.0,-5.0,-12.0,-7.0,-9.0,-24.0,-25.0,-33.0,-38.0,-37.0,-32.0,-3.0,1.0,1
13.0,-404.0,956.0,-196.0,-31.0,-47.0,-121.0,-104.0,17.0,3.0,-12.0,0.0,0.0,-31.0,4.0,25.0,1
7.0,24.0,-18.0,17.0,14.0,12.0,13.0,11.0,7.0,7.0,7.0,8.0,8.0,9.0,0.0,8.0,1
-42.0,-34.0,-221.0,-13.0,-27.0,47.0,8.0,-12.0,-91.0,-67.0,-77.0,-89.0,-71.0,-57.0,-34.0,-76.0,1
-2.0,12.0,-58.0,15.0,-5.0,-14.0,-18.0,-17.0,-8.0,-2.0,-2.0,-5.0,1.0,1.0,-2.0,-13.0,1
6.0,16.0,34.0,17.0,17.0,17.0,21.0,18.0,13.0,19.0,17.0,15.0,13.0,11.0,8.0,10.0,1
6.0,10.0,14.0,9.0,8.0,6.0,4.0,5.0,7.0,9.0,8.0,12.0,11.0,7.0,0.0,3.0,1
0.0,128.0,-441.0,83.0,25.0,0.0,-8.0,-10.0,-23.0,-13.0,-15.0,-32.0,-16.0,1.0,6.0,-20.0,1
41.0,-8.0,219.0,-21.0,-1.0,34.0,39.0,59.0,58.0,59.0,78.0,113.0,76.0,72.0,49.0,55.0,1
-26.0,1.0,-154.0,12.0,-51.0,-105.0,-120.0,-128.0,-18.0,-17.0,-28.0,-5.0,-20.0,-23.0,-27.0,-31.0,1
-14.0,-2.0,-38.0,-4.0,-17.0,-15.0,-19.0,-20.0,5.0,0.0,0.0,2.0,1.0,2.0,0.0,5.0,1
29.0,105.0,-255.0,105.0,52.0,34.0,38.0,24.0,11.0,21.0,5.0,-13.0,10.0,8.0,-1.0,12.0,1
-7.0,-45.0,61.0,-34.0,-12.0,-17.0,-26.0,-24.0,-11.0,-11.0,-16.0,-12.0,-11.0,-1.0,19.0,-9.0,1
-23.0,-13.0,-56.0,-17.0,-25.0,-25.0,-27.0,-27.0,-29.0,-27.0,-24.0,-22.0,-21.0,-19.0,-16.0,-25.0,1
47.0,79.0,108.0,63.0,46.0,67.0,76.0,87.0,63.0,58.0,76.0,137.0,78.0,63.0,30.0,47.0,1
-8.0,0.0,-76.0,-10.0,-25.0,-26.0,-32.0,-28.0,-9.0,-15.0,-11.0,-12.0,-12.0,-11.0,2.0,-12.0,1
40.0,50.0,21.0,49.0,41.0,35.0,34.0,33.0,32.0,36.0,35.0,37.0,38.0,34.0,28.0,29.0,1
30.0,168.0,-472.0,132.0,66.0,49.0,65.0,46.0,-38.0,-35.0,-47.0,-60.0,-24.0,-1.0,-20.0,-16.0,1
12.0,97.0,-261.0,76.0,61.0,-51.0,-21.0,-7.0,6.0,9.0,24.0,6.0,3.0,4.0,6.0,5.0,1
42.0,178.0,-507.0,130.0,105.0,63.0,90.0,86.0,-50.0,-35.0,-36.0,-43.0,-22.0,-15.0,-3.0,-25.0,1
17.0,155.0,-312.0,86.0,-143.0,-287.0,-269.0,-285.0,97.0,38.0,5.0,24.0,-2.0,4.0,42.0,104.0,1
-18.0,127.0,-502.0,90.0,48.0,-13.0,-4.0,-4.0,-66.0,-45.0,-51.0,-62.0,-48.0,-38.0,-24.0,-55.0,1
27.0,30.0,8.0,29.0,24.0,14.0,13.0,12.0,21.0,27.0,21.0,19.0,20.0,17.0,19.0,16.0,1
-26.0,-379.0,1042.0,-282.0,-71.0,-6.0,12.0,35.0,32.0,22.0,43.0,51.0,34.0,29.0,17.0,25.0,1
3.0,51.0,-164.0,29.0,4.0,-4.0,-1.0,-3.0,-3.0,-1.0,0.0,-3.0,-3.0,-4.0,1.0,-7.0,1
3.0,48.0,-169.0,42.0,14.0,5.0,3.0,5.0,10.0,17.0,24.0,8.0,-2.0,38.0,16.0,20.0,1
15.0,18.0,-8.0,3.0,-2.0,5.0,17.0,16.0,-2.0,-8.0,-1.0,1.0,4.0,8.0,17.0,8.0,1
-8.0,-21.0,19.0,-17.0,-10.0,-6.0,-7.0,-7.0,-7.0,-8.0,-11.0,-11.0,-10.0,-9.0,-6.0,-3.0,1
27.0,36.0,-2.0,28.0,23.0,23.0,25.0,23.0,7.0,3.0,4.0,5.0,6.0,4.0,4.0,11.0,1
11.0,-94.0,670.0,-100.0,-10.0,38.0,41.0,56.0,76.0,70.0,118.0,140.0,102.0,96.0,69.0,72.0,1
-100.0,-11.0,-70.0,-14.0,-84.0,-132.0,-196.0,-172.0,12.0,31.0,21.0,69.0,6.0,-10.0,-46.0,-21.0,1
-6.0,7.0,-171.0,6.0,-12.0,-20.0,-27.0,-27.0,-36.0,-27.0,-29.0,-39.0,-32.0,-28.0,-10.0,-28.0,1
32.0,145.0,-264.0,112.0,52.0,39.0,32.0,24.0,7.0,9.0,-16.0,-23.0,6.0,7.0,23.0,21.0,1
2.0,8.0,-1.0,-1.0,-1.0,-9.0,-27.0,-21.0,-3.0,-1.0,2.0,1.0,2.0,4.0,8.0,-8.0,1
8.0,27.0,-16.0,20.0,18.0,14.0,16.0,14.0,9.0,9.0,7.0,10.0,12.0,12.0,5.0,13.0,1
20.0,134.0,-288.0,97.0,47.0,19.0,22.0,18.0,-7.0,1.0,-2.0,-5.0,0.0,2.0,-1.0,-7.0,1
-21.0,-17.0,-9.0,-22.0,-21.0,-23.0,-29.0,-27.0,-13.0,-16.0,-11.0,-15.0,-12.0,-7.0,-2.0,-12.0,1
-15.0,0.0,-71.0,-4.0,-14.0,-15.0,-12.0,-14.0,-12.0,-12.0,-16.0,-18.0,-21.0,-32.0,-45.0,-19.0,1
4.0,76.0,-198.0,63.0,17.0,4.0,-2.0,-2.0,-21.0,-9.0,-9.0,-10.0,-6.0,-3.0,7.0,-14.0,1
42.0,20.0,57.0,25.0,31.0,33.0,39.0,37.0,20.0,18.0,23.0,23.0,26.0,29.0,32.0,27.0,1
-3.0,37.0,-111.0,17.0,-4.0,-5.0,1.0,8.0,-25.0,-24.0,-24.0,-24.0,-22.0,-16.0,-13.0,-25.0,1
-8.0,-50.0,15.0,-35.0,-15.0,-14.0,-14.0,-15.0,-17.0,-17.0,-10.0,-22.0,-21.0,-14.0,-1.0,-15.0,1
-22.0,-12.0,-76.0,-25.0,-33.0,-38.0,-48.0,-46.0,-43.0,-43.0,-43.0,-39.0,-36.0,-29.0,-33.0,-38.0,1
-35.0,-62.0,-4.0,-44.0,-36.0,-33.0,-36.0,-36.0,-28.0,-27.0,-33.0,-35.0,-32.0,-30.0,-17.0,-28.0,1
12.0,-5.0,34.0,-2.0,8.0,9.0,12.0,12.0,4.0,0.0,4.0,-1.0,-2.0,0.0,0.0,6.0,1
-7.0,39.0,-184.0,11.0,-21.0,-35.0,-50.0,-46.0,-33.0,-16.0,-26.0,-31.0,-26.0,-24.0,-24.0,-35.0,1
24.0,24.0,36.0,27.0,35.0,29.0,33.0,32.0,47.0,38.0,33.0,27.0,27.0,21.0,26.0,42.0,1
-3.0,-15.0,-178.0,-12.0,14.0,41.0,26.0,19.0,-85.0,-61.0,-73.0,-81.0,-64.0,-54.0,-33.0,-69.0,1
20.0,16.0,43.0,30.0,33.0,30.0,33.0,34.0,26.0,25.0,25.0,18.0,19.0,24.0,27.0,27.0,1
6.0,11.0,0.0,3.0,2.0,3.0,3.0,4.0,1.0,-5.0,-3.0,-1.0,0.0,3.0,5.0,5.0,1
-10.0,169.0,-574.0,123.0,41.0,5.0,12.0,8.0,-66.0,-54.0,-70.0,-124.0,-89.0,-79.0,-35.0,-34.0,1
57.0,112.0,-168.0,84.0,56.0,32.0,37.0,35.0,19.0,21.0,17.0,27.0,30.0,30.0,35.0,25.0,1
-15.0,-3.0,-109.0,-30.0,-24.0,-24.0,-27.0,-25.0,-20.0,-31.0,-32.0,-37.0,-38.0,-30.0,-13.0,-18.0,1
-35.0,-34.0,-8.0,-26.0,-22.0,-26.0,-30.0,-32.0,-26.0,-26.0,-27.0,-25.0,-22.0,-20.0,-3.0,-26.0,1
3.0,37.0,-132.0,35.0,21.0,-4.0,-13.0,-11.0,-5.0,-1.0,-5.0,2.0,-7.0,-8.0,-7.0,-5.0,1
-9.0,-12.0,-14.0,-19.0,-9.0,-8.0,-12.0,-11.0,-9.0,-12.0,-10.0,-13.0,-14.0,-12.0,-4.0,-8.0,1
-18.0,10.0,-214.0,19.0,32.0,-7.0,2.0,6.0,-88.0,-63.0,-70.0,-84.0,-59.0,-51.0,-30.0,-72.0,1
-10.0,128.0,-469.0,91.0,6.0,-17.0,-14.0,-22.0,-28.0,-29.0,-32.0,-52.0,-30.0,-26.0,-22.0,-26.0,1
-13.0,-5.0,-2.0,-1.0,-2.0,3.0,12.0,11.0,-3.0,-2.0,-4.0,1.0,1.0,-2.0,-10.0,0.0,1
-4.0,-5.0,-47.0,-8.0,-9.0,-1.0,6.0,0.0,-20.0,-22.0,-23.0,-18.0,-17.0,-25.0,-61.0,-20.0,1
28.0,21.0,56.0,29.0,25.0,26.0,38.0,37.0,23.0,21.0,19.0,21.0,19.0,7.0,-7.0,28.0,1
-5.0,17.0,-9.0,-7.0,-8.0,-5.0,6.0,4.0,-18.0,-22.0,-17.0,-20.0,-17.0,-19.0,-27.0,-12.0,1
-4.0,-2.0,0.0,0.0,0.0,2.0,2.0,0.0,27.0,14.0,11.0,9.0,7.0,11.0,8.0,27.0,1
23.0,51.0,-104.0,44.0,27.0,-23.0,-77.0,-37.0,8.0,7.0,-10.0,-1.0,3.0,11.0,15.0,13.0,1
21.0,111.0,-331.0,95.0,163.0,170.0,231.0,206.0,27.0,29.0,-2.0,-17.0,-10.0,0.0,19.0,25.0,1
-11.0,145.0,-395.0,94.0,22.0,-2.0,-2.0,-6.0,-30.0,-23.0,-47.0,-52.0,-32.0,-32.0,-17.0,-21.0,1
4.0,-12.0,51.0,-8.0,-3.0,-3.0,-5.0,-4.0,0.0,1.0,-2.0,-8.0,-6.0,-5.0,-17.0,-1.0,1
-18.0,-8.0,-82.0,-9.0,-18.0,-25.0,-27.0,-27.0,-22.0,-17.0,-24.0,-17.0,-20.0,-19.0,-17.0,-23.0,1
17.0,47.0,-133.0,42.0,25.0,-9.0,-16.0,-20.0,25.0,27.0,26.0,26.0,11.0,12.0,27.0,39.0,1
-58.0,-79.0,-259.0,-56.0,-64.0,3.0,-48.0,-57.0,-120.0,-107.0,-114.0,-128.0,-107.0,-86.0,-55.0,-101.0,1
-30.0,-45.0,-41.0,-35.0,-32.0,-33.0,-36.0,-37.0,-25.0,-26.0,-25.0,-21.0,-17.0,-13.0,-11.0,-22.0,1
3.0,32.0,-111.0,27.0,1.0,-12.0,-26.0,-27.0,14.0,19.0,34.0,35.0,9.0,67.0,15.0,8.0,1
36.0,40.0,-19.0,39.0,30.0,37.0,41.0,39.0,10.0,25.0,1.0,1.0,2.0,-3.0,-27.0,6.0,1
19.0,-7.0,78.0,-5.0,19.0,20.0,22.0,22.0,25.0,32.0,31.0,20.0,16.0,12.0,18.0,21.0,1
-10.0,-25.0,14.0,-22.0,-16.0,-16.0,-19.0,-16.0,-10.0,-13.0,-12.0,-10.0,-13.0,-10.0,-4.0,-12.0,1
1.0,25.0,-43.0,21.0,13.0,16.0,13.0,13.0,1.0,2.0,-2.0,4.0,5.0,0.0,8.0,3.0,1
-31.0,-31.0,-13.0,-27.0,-27.0,-23.0,-25.0,-24.0,-15.0,-12.0,-18.0,-16.0,-18.0,-18.0,-16.0,-17.0,1
3.0,29.0,-88.0,17.0,6.0,1.0,0.0,-1.0,2.0,8.0,-1.0,0.0,-1.0,-1.0,5.0,2.0,1
-26.0,-34.0,-58.0,-26.0,-27.0,-29.0,-33.0,-32.0,-16.0,-13.0,-18.0,-20.0,-25.0,-20.0,-8.0,-23.0,1
-8.0,-15.0,32.0,-15.0,-2.0,-7.0,-6.0,-5.0,8.0,12.0,1.0,-2.0,-3.0,-9.0,-9.0,-5.0,1
-24.0,-39.0,-31.0,-4.0,51.0,32.0,46.0,38.0,-61.0,-25.0,-36.0,-55.0,-34.0,-27.0,-27.0,-64.0,1
-2.0,61.0,-219.0,34.0,8.0,-7.0,2.0,5.0,-20.0,-16.0,-14.0,-22.0,-21.0,-27.0,-15.0,-16.0,1
19.0,76.0,-227.0,78.0,-9.0,73.0,12.0,-13.0,-47.0,-16.0,-27.0,-50.0,-16.0,-5.0,-15.0,-42.0,1
-21.0,-63.0,191.0,-99.0,-49.0,-44.0,-36.0,-36.0,-12.0,-12.0,-18.0,4.0,-4.0,-25.0,-21.0,-26.0,1
20.0,35.0,-15.0,21.0,15.0,16.0,25.0,27.0,8.0,6.0,2.0,5.0,8.0,1.0,0.0,10.0,1
2.0,119.0,-164.0,72.0,29.0,18.0,15.0,23.0,32.0,21.0,42.0,93.0,36.0,34.0,21.0,21.0,1
-13.0,-26.0,65.0,-18.0,-6.0,-4.0,-3.0,-2.0,3.0,5.0,10.0,8.0,7.0,4.0,2.0,3.0,1
-23.0,-32.0,-15.0,-25.0,-29.0,-26.0,-27.0,-27.0,1.0,-8.0,-11.0,-13.0,-19.0,-22.0,-18.0,-4.0,1
4.0,70.0,-169.0,54.0,22.0,8.0,8.0,4.0,-9.0,2.0,-4.0,-9.0,-3.0,-1.0,-6.0,-8.0,1
-10.0,5.0,-52.0,2.0,-7.0,-14.0,-19.0,-18.0,-15.0,-14.0,-13.0,-12.0,-13.0,-10.0,-10.0,-17.0,1
28.0,68.0,-106.0,60.0,67.0,24.0,43.0,48.0,-6.0,8.0,-2.0,-5.0,-3.0,-13.0,-5.0,-12.0,1
-24.0,-258.0,934.0,-208.0,-63.0,-23.0,-22.0,1.0,59.0,42.0,94.0,117.0,78.0,77.0,61.0,49.0,1
-30.0,-11.0,-56.0,-15.0,-23.0,-29.0,-35.0,-36.0,-10.0,4.0,-10.0,-12.0,-14.0,-5.0,7.0,-21.0,1
25.0,436.0,-1012.0,312.0,78.0,36.0,16.0,1.0,-185.0,-89.0,-58.0,-59.0,-36.0,-37.0,-66.0,-164.0,1
2.0,-78.0,160.0,-50.0,-15.0,-6.0,0.0,2.0,-1.0,-4.0,-4.0,-7.0,-8.0,-10.0,-7.0,-4.0,1
15.0,-79.0,259.0,-33.0,19.0,27.0,21.0,21.0,32.0,34.0,39.0,34.0,33.0,35.0,44.0,31.0,1
-21.0,-4.0,-101.0,-8.0,-23.0,-28.0,-28.0,-29.0,-21.0,-19.0,-30.0,-25.0,-21.0,-20.0,-21.0,-19.0,1
-3.0,2.0,-5.0,2.0,3.0,8.0,8.0,8.0,4.0,0.0,1.0,2.0,-1.0,-3.0,-4.0,5.0,1
37.0,215.0,-462.0,162.0,55.0,44.0,44.0,54.0,-28.0,-7.0,14.0,-20.0,6.0,-4.0,0.0,-17.0,1
12.0,-30.0,123.0,-22.0,-3.0,-3.0,-7.0,-5.0,2.0,2.0,-6.0,29.0,9.0,10.0,7.0,1.0,1
33.0,43.0,35.0,44.0,29.0,24.0,22.0,21.0,28.0,33.0,30.0,24.0,22.0,17.0,1.0,21.0,1
-46.0,-36.0,46.0,-5.0,-6.0,-1.0,-2.0,-2.0,35.0,53.0,43.0,32.0,23.0,17.0,13.0,17.0,1
-21.0,128.0,-528.0,88.0,21.0,0.0,16.0,0.0,-41.0,-33.0,-63.0,-89.0,-64.0,-45.0,-50.0,-35.0,1
-58.0,3.0,-43.0,11.0,-4.0,-1.0,0.0,3.0,25.0,30.0,20.0,19.0,13.0,12.0,7.0,7.0,1
-1.0,-18.0,65.0,-11.0,-2.0,5.0,9.0,8.0,4.0,5.0,3.0,6.0,2.0,0.0,-5.0,-2.0,1
-11.0,-25.0,21.0,-12.0,-7.0,-3.0,-2.0,-3.0,-7.0,-4.0,-6.0,-5.0,-6.0,-12.0,-23.0,-7.0,1
-16.0,-44.0,13.0,-43.0,-25.0,-20.0,-22.0,-17.0,-21.0,-24.0,-23.0,-27.0,-27.0,-24.0,-16.0,-22.0,1
-1.0,37.0,-207.0,37.0,46.0,3.0,12.0,14.0,-82.0,-53.0,-59.0,-76.0,-54.0,-45.0,-41.0,-71.0,1
-16.0,-17.0,-65.0,0.0,-2.0,-18.0,-23.0,-26.0,-1.0,-4.0,21.0,25.0,5.0,-16.0,-20.0,-13.0,1
-16.0,-43.0,27.0,-28.0,-36.0,-42.0,-52.0,-55.0,6.0,5.0,27.0,27.0,8.0,17.0,-3.0,-8.0,1
5.0,18.0,-16.0,2.0,-1.0,-5.0,-5.0,-3.0,-9.0,-7.0,-7.0,-5.0,-4.0,-8.0,-16.0,-12.0,1
-39.0,-45.0,-44.0,-35.0,-37.0,-35.0,-36.0,-37.0,-29.0,-29.0,-29.0,-35.0,-35.0,-36.0,-35.0,-32.0,1
-9.0,44.0,-177.0,21.0,-11.0,-23.0,-24.0,-23.0,-22.0,-25.0,-22.0,-27.0,-26.0,-21.0,-14.0,-23.0,1
-4.0,7.0,59.0,-6.0,-15.0,-24.0,-31.0,-31.0,-6.0,-2.0,-7.0,-9.0,-9.0,-8.0,-9.0,-14.0,1
57.0,111.0,-148.0,82.0,32.0,16.0,7.0,19.0,53.0,39.0,44.0,86.0,51.0,50.0,35.0,22.0,1
-10.0,18.0,-146.0,29.0,-34.0,-97.0,-111.0,-123.0,-7.0,-4.0,-16.0,4.0,-11.0,-18.0,-14.0,-14.0,1
35.0,162.0,-311.0,106.0,-140.0,-242.0,-260.0,-281.0,113.0,58.0,19.0,33.0,4.0,5.0,39.0,111.0,1
-12.0,12.0,-20.0,8.0,2.0,4.0,6.0,4.0,9.0,9.0,8.0,7.0,4.0,0.0,-6.0,5.0,1
0.0,-10.0,41.0,3.0,6.0,8.0,9.0,11.0,10.0,8.0,7.0,11.0,8.0,10.0,10.0,7.0,1
6.0,17.0,-11.0,12.0,4.0,3.0,-2.0,-1.0,-3.0,-1.0,-4.0,0.0,-1.0,3.0,5.0,-1.0,1
0.0,-143.0,635.0,-140.0,-41.0,12.0,24.0,38.0,64.0,48.0,120.0,135.0,87.0,71.0,32.0,45.0,1
0.0,-177.0,653.0,-112.0,-29.0,0.0,17.0,38.0,59.0,47.0,131.0,81.0,72.0,63.0,29.0,46.0,1
-44.0,-114.0,285.0,-132.0,-64.0,-24.0,-27.0,-21.0,0.0,-9.0,43.0,75.0,30.0,24.0,-18.0,-5.0,1
0.0,-25.0,63.0,-28.0,-6.0,3.0,6.0,7.0,11.0,8.0,6.0,3.0,3.0,5.0,6.0,13.0,1
31.0,75.0,-145.0,72.0,59.0,27.0,48.0,52.0,14.0,33.0,17.0,12.0,10.0,3.0,19.0,16.0,1
-6.0,-9.0,32.0,-5.0,0.0,2.0,0.0,1.0,-32.0,-11.0,-5.0,-1.0,-1.0,1.0,5.0,-22.0,1
-5.0,3.0,-153.0,19.0,50.0,24.0,36.0,37.0,-26.0,-15.0,-18.0,-38.0,-25.0,-24.0,-3.0,-24.0,1
18.0,78.0,-285.0,87.0,38.0,24.0,27.0,12.0,-3.0,2.0,-10.0,-27.0,-6.0,-6.0,5.0,0.0,1
-10.0,10.0,-29.0,5.0,-6.0,-10.0,-13.0,-12.0,0.0,1.0,-2.0,0.0,0.0,3.0,7.0,-2.0,1
-4.0,10.0,-126.0,14.0,8.0,0.0,0.0,-7.0,-35.0,-24.0,-32.0,-59.0,-34.0,-27.0,-9.0,-18.0,1
-6.0,-22.0,38.0,-23.0,-16.0,-14.0,-13.0,-12.0,-12.0,-15.0,-17.0,-20.0,-15.0,-12.0,3.0,-6.0,1
-6.0,-304.0,1097.0,-271.0,-77.0,-5.0,19.0,45.0,35.0,22.0,69.0,71.0,41.0,37.0,20.0,26.0,1
-9.0,-41.0,36.0,-39.0,-19.0,-14.0,-12.0,-11.0,-12.0,-13.0,-9.0,-12.0,-11.0,-9.0,-1.0,-10.0,1
-18.0,-40.0,9.0,-26.0,-20.0,-14.0,-11.0,-11.0,-21.0,-22.0,-23.0,-18.0,-19.0,-16.0,-13.0,-17.0,1
3.0,39.0,-94.0,22.0,-2.0,1.0,0.0,-4.0,-101.0,-47.0,-35.0,-22.0,-18.0,-18.0,-45.0,-103.0,1
4.0,7.0,-15.0,11.0,0.0,-5.0,-3.0,1.0,-3.0,-2.0,-6.0,-6.0,-7.0,-5.0,1.0,-5.0,1
-27.0,-320.0,956.0,-267.0,-75.0,-5.0,9.0,28.0,16.0,3.0,33.0,38.0,19.0,16.0,8.0,10.0,1
12.0,8.0,39.0,17.0,16.0,20.0,24.0,24.0,11.0,14.0,14.0,15.0,13.0,9.0,2.0,10.0,1
0.0,133.0,-423.0,93.0,26.0,4.0,18.0,12.0,-30.0,-9.0,-7.0,-22.0,-19.0,-32.0,-58.0,-33.0,1
14.0,31.0,-43.0,35.0,32.0,7.0,16.0,20.0,-4.0,2.0,5.0,8.0,9.0,3.0,3.0,-2.0,1
-75.0,-212.0,460.0,-169.0,-86.0,-50.0,-45.0,-38.0,2.0,2.0,33.0,39.0,15.0,13.0,-16.0,-12.0,1
-12.0,28.0,-153.0,20.0,15.0,34.0,89.0,72.0,-32.0,-26.0,3.0,-60.0,-27.0,-16.0,-18.0,-27.0,1
9.0,31.0,-196.0,42.0,12.0,3.0,5.0,2.0,-21.0,-18.0,-10.0,-25.0,-11.0,-13.0,-11.0,-18.0,1
-2.0,43.0,-186.0,34.0,10.0,-13.0,-22.0,-20.0,-10.0,-7.0,-13.0,-6.0,-17.0,-16.0,-14.0,-11.0,1
-30.0,-40.0,-48.0,-25.0,-12.0,-27.0,-22.0,-24.0,-26.0,-28.0,-25.0,-26.0,-24.0,-24.0,-6.0,-26.0,1
23.0,3.0,81.0,14.0,27.0,29.0,33.0,31.0,19.0,19.0,22.0,21.0,20.0,17.0,15.0,17.0,1
-14.0,-97.0,234.0,-81.0,12.0,-87.0,-27.0,0.0,29.0,11.0,-5.0,27.0,4.0,-1.0,2.0,12.0,1
-19.0,-43.0,61.0,-35.0,-9.0,-1.0,2.0,5.0,-15.0,-6.0,4.0,-3.0,-6.0,-10.0,-17.0,-13.0,1
8.0,87.0,-180.0,90.0,30.0,17.0,17.0,14.0,-68.0,-31.0,-20.0,-7.0,5.0,-1.0,-20.0,-53.0,1
-21.0,-2.0,-89.0,-16.0,-23.0,-17.0,-15.0,-15.0,-9.0,-17.0,-11.0,-15.0,-14.0,-16.0,-22.0,-13.0,1
8.0,127.0,-363.0,91.0,36.0,-14.0,1.0,1.0,-45.0,-19.0,-29.0,-45.0,-30.0,-35.0,-36.0,-41.0,1
22.0,27.0,16.0,18.0,14.0,12.0,13.0,14.0,16.0,13.0,12.0,13.0,13.0,9.0,11.0,15.0,1
-7.0,7.0,-16.0,2.0,3.0,2.0,4.0,6.0,6.0,4.0,5.0,4.0,4.0,1.0,-2.0,8.0,1
6.0,94.0,-275.0,65.0,137.0,39.0,106.0,128.0,29.0,22.0,8.0,8.0,-5.0,-4.0,3.0,19.0,1
51.0,77.0,-37.0,66.0,35.0,21.0,15.0,15.0,16.0,16.0,11.0,9.0,14.0,20.0,39.0,23.0,1
26.0,106.0,-320.0,72.0,47.0,16.0,28.0,31.0,-33.0,-18.0,-23.0,-20.0,-13.0,-4.0,24.0,-22.0,1
-10.0,34.0,-21.0,26.0,5.0,-6.0,-16.0,-11.0,-19.0,0.0,-6.0,-7.0,-9.0,-7.0,5.0,-26.0,1
40.0,71.0,-46.0,47.0,27.0,24.0,30.0,26.0,7.0,13.0,0.0,7.0,14.0,11.0,-7.0,11.0,1
-9.0,-11.0,-36.0,8.0,-17.0,-47.0,-83.0,-114.0,5.0,8.0,27.0,27.0,5.0,34.0,2.0,-8.0,1
-13.0,-8.0,-60.0,-9.0,-13.0,-16.0,-19.0,-19.0,-24.0,-23.0,-30.0,-21.0,-22.0,-20.0,-7.0,-21.0,1
28.0,28.0,31.0,22.0,29.0,44.0,59.0,58.0,11.0,11.0,10.0,10.0,8.0,1.0,-1.0,21.0,1
-33.0,106.0,-529.0,53.0,-18.0,-27.0,-30.0,-52.0,-73.0,-76.0,-100.0,-121.0,-99.0,-72.0,-47.0,-57.0,1
-23.0,-78.0,409.0,-93.0,-30.0,7.0,8.0,20.0,81.0,68.0,104.0,121.0,70.0,60.0,39.0,60.0,1
5.0,43.0,-78.0,17.0,-2.0,-6.0,-7.0,-6.0,-11.0,-11.0,-29.0,-16.0,-10.0,-9.0,-3.0,-9.0,1
-6.0,-16.0,-41.0,-11.0,-8.0,-7.0,-4.0,-3.0,-2.0,-3.0,-2.0,-13.0,-13.0,-15.0,-6.0,-3.0,1
-13.0,23.0,-188.0,28.0,-20.0,-81.0,-80.0,-77.0,-16.0,-14.0,-16.0,-6.0,-21.0,-26.0,-19.0,-23.0,1
-14.0,-58.0,100.0,-47.0,-22.0,-12.0,-7.0,-6.0,-5.0,-9.0,-6.0,-9.0,-12.0,-12.0,-10.0,-5.0,1
-21.0,-14.0,-134.0,10.0,-28.0,-78.0,-80.0,-70.0,14.0,3.0,-14.0,6.0,-15.0,-9.0,-6.0,-1.0,1
-7.0,-43.0,40.0,-32.0,-19.0,-23.0,-27.0,-24.0,-27.0,-29.0,-25.0,-18.0,-16.0,-11.0,-6.0,-23.0,1
-6.0,-18.0,-75.0,12.0,14.0,15.0,2.0,-13.0,-6.0,-5.0,-14.0,-39.0,-10.0,1.0,15.0,4.0,1
0.0,204.0,-585.0,157.0,33.0,-8.0,-31.0,-50.0,-79.0,-61.0,-47.0,-92.0,-59.0,-60.0,-39.0,-52.0,1
10.0,-63.0,170.0,-37.0,1.0,4.0,4.0,4.0,19.0,17.0,12.0,7.0,7.0,12.0,15.0,19.0,1
-28.0,-66.0,47.0,-43.0,-27.0,-20.0,-20.0,-19.0,-11.0,-8.0,-21.0,-14.0,-17.0,-22.0,-25.0,-16.0,1
-23.0,9.0,-118.0,-8.0,-24.0,-21.0,-19.0,-18.0,-27.0,-29.0,-29.0,-33.0,-34.0,-37.0,-23.0,-28.0,1
2.0,69.0,-154.0,41.0,13.0,0.0,-3.0,-5.0,-5.0,-2.0,2.0,-1.0,4.0,0.0,-6.0,-5.0,1
27.0,20.0,-98.0,4.0,-4.0,-4.0,-10.0,-8.0,-27.0,-36.0,-40.0,-23.0,-16.0,-4.0,14.0,-11.0,1
-6.0,-65.0,142.0,-49.0,-12.0,-3.0,3.0,2.0,-1.0,1.0,-28.0,10.0,-10.0,-22.0,-27.0,1.0,1
2.0,72.0,-309.0,77.0,22.0,-87.0,-86.0,-89.0,25.0,14.0,-3.0,-2.0,-13.0,-9.0,4.0,14.0,1
-3.0,0.0,28.0,7.0,3.0,2.0,0.0,0.0,16.0,13.0,14.0,15.0,14.0,13.0,12.0,14.0,1
-10.0,-22.0,-18.0,-12.0,-12.0,-5.0,0.0,1.0,-5.0,-7.0,-7.0,-16.0,-20.0,-22.0,-31.0,-10.0,1
-30.0,-54.0,-175.0,-45.0,-32.0,-50.0,-29.0,-30.0,-97.0,-88.0,-96.0,-123.0,-91.0,-70.0,-42.0,-76.0,1
35.0,12.0,87.0,8.0,10.0,14.0,17.0,14.0,8.0,7.0,10.0,13.0,14.0,15.0,22.0,14.0,1
12.0,12.0,116.0,31.0,43.0,47.0,46.0,44.0,46.0,54.0,25.0,62.0,43.0,38.0,32.0,41.0,1
-9.0,-64.0,-57.0,-32.0,4.0,60.0,35.0,6.0,-61.0,-43.0,-54.0,-63.0,-33.0,-23.0,-26.0,-52.0,1
17.0,19.0,17.0,17.0,13.0,12.0,13.0,17.0,11.0,13.0,9.0,8.0,10.0,6.0,9.0,8.0,1
17.0,-18.0,86.0,-3.0,13.0,14.0,14.0,14.0,11.0,13.0,5.0,19.0,19.0,20.0,25.0,13.0,1
7.0,52.0,-79.0,34.0,15.0,11.0,12.0,11.0,10.0,11.0,9.0,13.0,11.0,9.0,1.0,11.0,1
-6.0,22.0,16.0,-16.0,-20.0,-9.0,-9.0,-7.0,9.0,7.0,7.0,37.0,12.0,12.0,5.0,11.0,1
10.0,-39.0,25.0,-6.0,70.0,74.0,88.0,78.0,-49.0,-19.0,-33.0,-50.0,-26.0,-23.0,-20.0,-41.0,1
16.0,24.0,23.0,25.0,21.0,19.0,16.0,17.0,0.0,12.0,14.0,18.0,17.0,14.0,7.0,1.0,1
26.0,142.0,-321.0,99.0,-135.0,-127.0,-187.0,-225.0,180.0,83.0,32.0,33.0,18.0,10.0,47.0,184.0,1
-9.0,5.0,-39.0,-1.0,-8.0,-8.0,-9.0,-9.0,-1.0,-3.0,-5.0,-5.0,-5.0,-3.0,-2.0,0.0,1
3.0,7.0,15.0,10.0,2.0,-2.0,-2.0,-4.0,6.0,5.0,6.0,4.0,5.0,2.0,-5.0,6.0,1
14.0,20.0,-10.0,14.0,7.0,3.0,0.0,-1.0,8.0,2.0,3.0,4.0,7.0,14.0,17.0,8.0,1
-4.0,14.0,4.0,21.0,14.0,11.0,9.0,5.0,14.0,17.0,8.0,8.0,9.0,9.0,11.0,10.0,1
-65.0,-132.0,382.0,-140.0,-80.0,-39.0,-33.0,-22.0,40.0,19.0,61.0,91.0,33.0,32.0,15.0,30.0,1
3.0,-6.0,15.0,-2.0,1.0,4.0,3.0,4.0,6.0,3.0,2.0,2.0,2.0,1.0,-4.0,5.0,1
-19.0,27.0,-164.0,28.0,3.0,-19.0,-37.0,-57.0,-37.0,-25.0,-30.0,-48.0,-47.0,21.0,-15.0,-43.0,1
7.0,108.0,-336.0,92.0,42.0,11.0,9.0,12.0,-9.0,0.0,-15.0,-14.0,-16.0,-15.0,-7.0,-3.0,1
-13.0,17.0,-84.0,1.0,-19.0,-23.0,-30.0,-27.0,-17.0,-17.0,-18.0,-16.0,-18.0,-10.0,-3.0,-17.0,1
15.0,33.0,-157.0,21.0,6.0,8.0,23.0,17.0,-52.0,-39.0,-39.0,-47.0,-34.0,-37.0,-45.0,-29.0,1
-13.0,-7.0,-75.0,-20.0,-16.0,-18.0,-20.0,-19.0,-12.0,-12.0,-14.0,-18.0,-15.0,-13.0,-7.0,-12.0,1
17.0,85.0,-217.0,54.0,4.0,-14.0,-29.0,-37.0,33.0,3.0,-5.0,-8.0,-2.0,-11.0,-26.0,25.0,1
17.0,47.0,-54.0,31.0,15.0,6.0,4.0,6.0,8.0,0.0,5.0,6.0,9.0,13.0,22.0,13.0,1
-23.0,-80.0,87.0,-65.0,-36.0,-32.0,-34.0,-34.0,-4.0,-5.0,-4.0,13.0,-3.0,-5.0,-16.0,-10.0,1
-26.0,-79.0,88.0,-80.0,-50.0,-68.0,-81.0,-101.0,-15.0,-16.0,-16.0,6.0,-5.0,-31.0,-27.0,-29.0,1
-2.0,-152.0,676.0,-161.0,-49.0,5.0,18.0,33.0,56.0,42.0,85.0,104.0,62.0,45.0,10.0,42.0,1
-32.0,16.0,-215.0,10.0,-10.0,-16.0,-14.0,-15.0,-32.0,-23.0,-28.0,-35.0,-30.0,-30.0,-27.0,-24.0,1
-91.0,4.0,47.0,21.0,11.0,23.0,22.0,32.0,102.0,102.0,102.0,131.0,68.0,54.0,31.0,57.0,1
-45.0,-115.0,67.0,-101.0,-77.0,-58.0,-70.0,-94.0,-77.0,-92.0,-105.0,-115.0,-95.0,-81.0,-48.0,-55.0,1
-19.0,52.0,-240.0,36.0,-7.0,-12.0,-19.0,-24.0,-43.0,-39.0,-58.0,-74.0,-43.0,-40.0,-28.0,-32.0,1
0.0,9.0,-5.0,11.0,9.0,13.0,17.0,15.0,11.0,10.0,7.0,6.0,5.0,5.0,-4.0,16.0,1
-24.0,-25.0,23.0,-24.0,-18.0,-20.0,-27.0,-24.0,-17.0,-18.0,-13.0,-20.0,-22.0,-24.0,-26.0,-16.0,1
-9.0,14.0,-192.0,38.0,-5.0,92.0,31.0,5.0,-56.0,-30.0,-39.0,-57.0,-33.0,-19.0,-2.0,-41.0,1
-12.0,-27.0,-8.0,-19.0,-7.0,-10.0,-18.0,-16.0,-16.0,-17.0,-28.0,-24.0,-20.0,-12.0,4.0,-12.0,1
-31.0,-28.0,-26.0,-29.0,-35.0,-41.0,-40.0,-39.0,-31.0,-32.0,-26.0,-31.0,-30.0,-14.0,17.0,-25.0,1
-10.0,29.0,-183.0,35.0,-9.0,-72.0,-72.0,-69.0,-12.0,-12.0,-10.0,0.0,-13.0,-16.0,-16.0,-20.0,1
30.0,-6.0,54.0,4.0,13.0,16.0,15.0,13.0,-2.0,-3.0,1.0,6.0,7.0,9.0,-7.0,2.0,1
-9.0,1.0,-44.0,0.0,-4.0,0.0,2.0,3.0,-10.0,-10.0,-7.0,-12.0,-12.0,-11.0,-3.0,-9.0,1
0.0,-11.0,12.0,-6.0,-1.0,-1.0,-2.0,-2.0,3.0,5.0,0.0,2.0,2.0,3.0,15.0,7.0,1
-1.0,-52.0,189.0,-39.0,-6.0,3.0,5.0,10.0,15.0,11.0,27.0,34.0,29.0,2.0,-3.0,0.0,1
32.0,32.0,88.0,32.0,40.0,38.0,37.0,32.0,24.0,27.0,28.0,30.0,31.0,25.0,14.0,23.0,1
9.0,33.0,-112.0,19.0,29.0,13.0,12.0,11.0,27.0,27.0,46.0,45.0,23.0,23.0,25.0,34.0,1
29.0,103.0,-260.0,101.0,49.0,31.0,36.0,21.0,10.0,17.0,3.0,-16.0,7.0,7.0,6.0,14.0,1
-24.0,-3.0,-88.0,-8.0,-17.0,-24.0,-23.0,-24.0,-24.0,-19.0,-26.0,-19.0,-21.0,-20.0,-12.0,-22.0,1
25.0,28.0,-161.0,39.0,40.0,37.0,38.0,27.0,-39.0,-30.0,-35.0,-52.0,-18.0,-5.0,-7.0,-25.0,1
-19.0,-3.0,-32.0,-5.0,-3.0,-16.0,-10.0,-9.0,-9.0,-2.0,-2.0,-5.0,-5.0,-9.0,-14.0,-16.0,1
-11.0,-175.0,595.0,-124.0,-35.0,6.0,23.0,38.0,49.0,49.0,68.0,70.0,47.0,36.0,7.0,30.0,1
0.0,-7.0,21.0,9.0,12.0,10.0,12.0,9.0,13.0,19.0,15.0,14.0,16.0,18.0,20.0,9.0,1
32.0,71.0,96.0,57.0,42.0,61.0,69.0,81.0,60.0,56.0,72.0,134.0,74.0,60.0,25.0,42.0,1
-7.0,2.0,-24.0,-3.0,-11.0,-14.0,-16.0,-14.0,-10.0,-8.0,-10.0,-11.0,-9.0,-11.0,-7.0,-8.0,1
-6.0,49.0,-172.0,24.0,-8.0,-19.0,-20.0,-18.0,-17.0,-19.0,-18.0,-23.0,-23.0,-18.0,-11.0,-18.0,1
7.0,84.0,-199.0,51.0,3.0,-2.0,-7.0,-8.0,-5.0,-6.0,-15.0,-16.0,-12.0,-7.0,3.0,-1.0,1
-13.0,15.0,-17.0,-2.0,-14.0,-11.0,-9.0,-8.0,4.0,3.0,1.0,3.0,0.0,-2.0,-10.0,1.0,1
12.0,2.0,-84.0,-26.0,-31.0,-32.0,-37.0,-35.0,-42.0,-52.0,-49.0,-40.0,-34.0,-19.0,11.0,-29.0,1
-27.0,2.0,-207.0,-14.0,7.0,-24.0,-9.0,-6.0,-50.0,-32.0,-39.0,-40.0,-39.0,-40.0,-21.0,-44.0,1
-1.0,81.0,-323.0,69.0,16.0,-6.0,-7.0,-13.0,-19.0,-18.0,-17.0,-39.0,-24.0,-23.0,-21.0,-17.0,1
-33.0,52.0,-279.0,35.0,-3.0,-2.0,1.0,-18.0,-2.0,-4.0,3.0,-59.0,-28.0,-10.0,-12.0,-5.0,1
20.0,128.0,-231.0,108.0,68.0,24.0,47.0,41.0,2.0,30.0,13.0,13.0,16.0,8.0,-3.0,0.0,1
51.0,-204.0,760.0,-148.0,-18.0,32.0,42.0,58.0,48.0,38.0,110.0,125.0,95.0,93.0,70.0,43.0,1
20.0,145.0,-379.0,109.0,52.0,15.0,25.0,24.0,-32.0,-15.0,-23.0,-39.0,-29.0,-35.0,-28.0,-31.0,1
-15.0,-68.0,154.0,-60.0,-32.0,-18.0,-17.0,-8.0,5.0,1.0,18.0,23.0,19.0,-6.0,-13.0,-15.0,1
-20.0,-50.0,38.0,-32.0,-17.0,-20.0,-22.0,-21.0,-8.0,-11.0,-5.0,-8.0,-9.0,-9.0,-3.0,-8.0,1
-10.0,-24.0,-27.0,-29.0,-25.0,-26.0,-37.0,-37.0,-33.0,-36.0,-79.0,-33.0,-47.0,-32.0,4.0,-22.0,1
8.0,158.0,-509.0,128.0,120.0,11.0,63.0,51.0,13.0,10.0,-10.0,-30.0,-27.0,-20.0,-1.0,10.0,1
-8.0,0.0,80.0,-7.0,-1.0,25.0,27.0,41.0,37.0,42.0,39.0,116.0,50.0,43.0,16.0,25.0,1
-9.0,13.0,-144.0,31.0,4.0,-9.0,-8.0,-12.0,-18.0,-12.0,-6.0,-12.0,-5.0,-7.0,-10.0,-21.0,1
-17.0,-54.0,88.0,-42.0,-23.0,-19.0,-23.0,-18.0,-11.0,-11.0,-10.0,-12.0,-11.0,-6.0,-4.0,-7.0,1
-1.0,70.0,-260.0,51.0,33.0,9.0,15.0,14.0,31.0,23.0,5.0,-15.0,-16.0,-14.0,0.0,29.0,1
-13.0,-33.0,35.0,-27.0,-17.0,-12.0,-12.0,-10.0,-4.0,-5.0,-5.0,-5.0,-6.0,-1.0,2.0,1.0,1
6.0,-19.0,55.0,-16.0,-3.0,4.0,7.0,6.0,-5.0,-5.0,-3.0,-2.0,-1.0,-3.0,-16.0,-3.0,1
21.0,37.0,-27.0,26.0,21.0,25.0,33.0,29.0,12.0,12.0,14.0,12.0,9.0,1.0,-12.0,15.0,1
-3.0,-4.0,44.0,-5.0,8.0,4.0,6.0,5.0,11.0,16.0,7.0,8.0,7.0,1.0,0.0,1.0,1
7.0,1.0,20.0,9.0,12.0,10.0,9.0,10.0,3.0,5.0,0.0,4.0,8.0,10.0,10.0,4.0,1
45.0,52.0,52.0,65.0,60.0,56.0,71.0,70.0,29.0,34.0,32.0,29.0,23.0,9.0,1.0,27.0,1
36.0,214.0,-435.0,163.0,58.0,42.0,36.0,35.0,-8.0,8.0,24.0,-6.0,17.0,7.0,23.0,23.0,1
-20.0,128.0,-464.0,87.0,17.0,-5.0,11.0,2.0,-25.0,-13.0,-20.0,-38.0,-24.0,-13.0,-26.0,-23.0,1
11.0,17.0,48.0,14.0,12.0,13.0,14.0,14.0,43.0,42.0,32.0,25.0,23.0,17.0,11.0,33.0,1
-26.0,90.0,-270.0,48.0,-38.0,-70.0,-99.0,-100.0,87.0,40.0,25.0,70.0,21.0,9.0,0.0,72.0,1
10.0,36.0,-153.0,46.0,63.0,26.0,25.0,25.0,-40.0,-14.0,-27.0,-32.0,-26.0,-29.0,-18.0,-43.0,1
15.0,38.0,-181.0,35.0,20.0,16.0,28.0,17.0,-24.0,-25.0,-7.0,-60.0,-28.0,-7.0,-8.0,-24.0,1
-25.0,6.0,-64.0,8.0,12.0,-18.0,-8.0,-5.0,-8.0,1.0,-5.0,-8.0,-9.0,-12.0,-8.0,-15.0,1
11.0,109.0,-175.0,52.0,10.0,9.0,16.0,12.0,0.0,-5.0,-15.0,-14.0,-11.0,-11.0,-12.0,1.0,1
-6.0,200.0,-623.0,149.0,40.0,9.0,1.0,-8.0,-144.0,-84.0,-85.0,-96.0,-64.0,-62.0,-60.0,-116.0,1
19.0,21.0,-7.0,16.0,9.0,12.0,14.0,14.0,14.0,13.0,11.0,8.0,10.0,12.0,15.0,16.0,1
0.0,13.0,-22.0,8.0,4.0,1.0,1.0,-1.0,-3.0,-1.0,0.0,-2.0,-1.0,0.0,-7.0,-5.0,1
-6.0,-10.0,-9.0,-13.0,-6.0,-7.0,-10.0,-10.0,-10.0,-13.0,-11.0,-12.0,-12.0,-11.0,-4.0,-8.0,1
-11.0,40.0,-243.0,27.0,-11.0,-22.0,-24.0,-29.0,-18.0,-19.0,-19.0,-27.0,-21.0,-18.0,-18.0,-15.0,1
40.0,27.0,65.0,25.0,28.0,33.0,38.0,36.0,14.0,18.0,16.0,15.0,12.0,10.0,15.0,19.0,1
21.0,96.0,-152.0,68.0,27.0,18.0,15.0,12.0,-9.0,3.0,2.0,2.0,3.0,2.0,-2.0,-7.0,1
24.0,119.0,-334.0,108.0,171.0,228.0,275.0,228.0,34.0,36.0,3.0,-15.0,-4.0,2.0,27.0,41.0,1
-22.0,-18.0,-6.0,-7.0,-2.0,-6.0,-9.0,-10.0,-4.0,-2.0,2.0,-3.0,-2.0,-2.0,5.0,-1.0,1
1.0,2.0,-32.0,-9.0,-13.0,-9.0,-14.0,-14.0,-35.0,-23.0,-21.0,-18.0,-22.0,-13.0,-9.0,-32.0,1
19.0,413.0,-982.0,277.0,44.0,16.0,-1.0,-12.0,-240.0,-105.0,-58.0,-44.0,-21.0,-23.0,-70.0,-223.0,1
-14.0,10.0,57.0,-52.0,-45.0,-29.0,-29.0,-23.0,27.0,11.0,34.0,70.0,30.0,27.0,10.0,25.0,1
3.0,76.0,-199.0,62.0,17.0,4.0,-4.0,-5.0,-17.0,-2.0,-2.0,2.0,3.0,5.0,10.0,-11.0,1
23.0,200.0,-504.0,128.0,51.0,25.0,45.0,36.0,-13.0,-4.0,-27.0,-43.0,-21.0,-10.0,-16.0,-11.0,1
-9.0,26.0,-52.0,19.0,5.0,-2.0,-6.0,-10.0,5.0,7.0,2.0,2.0,1.0,-1.0,-7.0,-3.0,1
-35.0,-68.0,9.0,-37.0,-23.0,-21.0,-27.0,-27.0,-1.0,-12.0,-15.0,-18.0,-15.0,-8.0,-5.0,-4.0,1
-35.0,-199.0,547.0,-166.0,-58.0,-20.0,-24.0,-13.0,4.0,7.0,40.0,46.0,27.0,25.0,5.0,-1.0,1
-5.0,30.0,-80.0,15.0,-3.0,-2.0,-3.0,-4.0,-5.0,-1.0,-3.0,-3.0,-4.0,-3.0,-3.0,-2.0,1
9.0,12.0,5.0,5.0,5.0,5.0,7.0,8.0,5.0,4.0,0.0,-1.0,2.0,1.0,9.0,3.0,1
-12.0,32.0,104.0,15.0,3.0,21.0,23.0,32.0,46.0,56.0,42.0,130.0,62.0,62.0,44.0,35.0,1
-6.0,-44.0,43.0,-32.0,-26.0,-25.0,-29.0,-25.0,-26.0,-31.0,-19.0,-15.0,-17.0,-13.0,-11.0,-24.0,1
-27.0,35.0,-63.0,19.0,6.0,-13.0,-16.0,-9.0,-14.0,-4.0,8.0,-31.0,-14.0,-1.0,0.0,-12.0,1
2.0,6.0,-21.0,-1.0,-3.0,-4.0,-5.0,-5.0,-3.0,-5.0,-6.0,-10.0,-10.0,-7.0,-1.0,-2.0,1
-3.0,43.0,-156.0,31.0,2.0,-6.0,-5.0,-11.0,-25.0,-3.0,-12.0,-22.0,-18.0,-22.0,-31.0,-27.0,1
-9.0,-8.0,-64.0,5.0,3.0,-10.0,-14.0,-18.0,5.0,3.0,27.0,29.0,10.0,-10.0,-11.0,-6.0,1
-25.0,-158.0,452.0,-105.0,-35.0,2.0,2.0,20.0,50.0,42.0,141.0,104.0,92.0,76.0,37.0,35.0,1
-58.0,-21.0,-229.0,-6.0,-31.0,-42.0,-47.0,-50.0,-61.0,-44.0,-50.0,-62.0,-52.0,-44.0,-35.0,-54.0,1
18.0,17.0,-7.0,19.0,15.0,14.0,13.0,13.0,3.0,3.0,5.0,7.0,9.0,11.0,1.0,8.0,1
10.0,-39.0,76.0,-32.0,-4.0,-5.0,-7.0,-7.0,10.0,11.0,13.0,29.0,14.0,12.0,7.0,2.0,1
-3.0,12.0,-188.0,32.0,17.0,12.0,23.0,11.0,-20.0,-9.0,0.0,-58.0,-28.0,-7.0,-7.0,-23.0,1
39.0,27.0,-48.0,35.0,31.0,13.0,7.0,12.0,-11.0,-6.0,5.0,-17.0,-1.0,11.0,14.0,0.0,1
-10.0,32.0,-185.0,28.0,2.0,-7.0,1.0,-4.0,-18.0,-16.0,-14.0,-30.0,-21.0,-28.0,-32.0,-18.0,1
-24.0,-49.0,17.0,-32.0,-18.0,-18.0,-28.0,-28.0,2.0,-8.0,-9.0,-8.0,-9.0,-4.0,5.0,-2.0,1
-15.0,99.0,-317.0,71.0,20.0,-6.0,-10.0,-10.0,-22.0,-10.0,-12.0,-12.0,-8.0,-9.0,-10.0,-20.0,1
-39.0,-220.0,592.0,-144.0,-35.0,-16.0,-4.0,6.0,13.0,9.0,18.0,19.0,14.0,12.0,14.0,10.0,1
-20.0,32.0,-209.0,29.0,5.0,-10.0,-16.0,-23.0,-45.0,-52.0,-70.0,-96.0,-63.0,-56.0,-21.0,-22.0,1
0.0,129.0,-436.0,79.0,6.0,-9.0,-10.0,-13.0,-47.0,-43.0,-63.0,-58.0,-41.0,-36.0,-23.0,-35.0,1
28.0,41.0,-125.0,54.0,-152.0,-148.0,-206.0,-222.0,-78.0,-43.0,-51.0,-75.0,-43.0,-40.0,-74.0,-73.0,1
-14.0,-16.0,22.0,-12.0,-5.0,-6.0,-12.0,-11.0,-53.0,-23.0,-18.0,-16.0,-12.0,-7.0,-5.0,-47.0,1
12.0,207.0,-578.0,172.0,65.0,23.0,14.0,0.0,-107.0,-66.0,-79.0,-99.0,-64.0,-60.0,-37.0,-73.0,1
17.0,50.0,-33.0,23.0,8.0,4.0,8.0,8.0,15.0,19.0,10.0,3.0,6.0,4.0,7.0,11.0,1
8.0,22.0,-15.0,14.0,3.0,1.0,7.0,7.0,5.0,5.0,3.0,3.0,5.0,7.0,21.0,8.0,1
-13.0,89.0,-310.0,61.0,39.0,2.0,29.0,23.0,-32.0,-15.0,-21.0,-23.0,-14.0,-19.0,-37.0,-20.0,1
1.0,-64.0,145.0,-35.0,-12.0,-4.0,-3.0,-1.0,0.0,-2.0,5.0,0.0,-3.0,0.0,5.0,4.0,1
9.0,94.0,-321.0,80.0,148.0,104.0,178.0,176.0,23.0,23.0,-3.0,-13.0,-13.0,-14.0,-7.0,9.0,1
33.0,49.0,31.0,38.0,27.0,23.0,27.0,27.0,23.0,25.0,25.0,25.0,25.0,21.0,6.0,21.0,1
20.0,191.0,-520.0,118.0,39.0,8.0,8.0,4.0,-23.0,-11.0,-21.0,-33.0,-17.0,5.0,10.0,-19.0,1
-36.0,-55.0,-94.0,-22.0,-22.0,-20.0,-23.0,-25.0,-21.0,-7.0,-11.0,-12.0,-16.0,-12.0,-4.0,-18.0,1
-19.0,-33.0,-4.0,-41.0,-28.0,-24.0,-24.0,-21.0,-20.0,-17.0,-11.0,-21.0,-22.0,-20.0,-22.0,-22.0,1
-15.0,6.0,-78.0,-11.0,-28.0,-24.0,-23.0,-23.0,-25.0,-23.0,-26.0,-25.0,-25.0,-22.0,-20.0,-25.0,1
11.0,-6.0,81.0,4.0,15.0,19.0,18.0,21.0,18.0,19.0,18.0,18.0,19.0,13.0,10.0,18.0,1
-2.0,-69.0,198.0,-35.0,7.0,18.0,22.0,21.0,16.0,13.0,16.0,11.0,11.0,8.0,6.0,19.0,1
11.0,35.0,-51.0,31.0,21.0,11.0,19.0,16.0,-1.0,0.0,0.0,1.0,0.0,-6.0,-3.0,-3.0,1
-3.0,-13.0,-43.0,4.0,-26.0,-58.0,-60.0,-51.0,31.0,19.0,0.0,24.0,3.0,7.0,14.0,21.0,1
-20.0,-4.0,-143.0,-10.0,-48.0,-88.0,-136.0,-130.0,-57.0,-55.0,-67.0,-64.0,-53.0,-40.0,-29.0,-52.0,1
-2.0,3.0,6.0,4.0,1.0,-2.0,-12.0,-6.0,7.0,12.0,17.0,7.0,6.0,10.0,16.0,3.0,1
-10.0,-181.0,682.0,-161.0,-53.0,-23.0,-25.0,3.0,63.0,52.0,92.0,137.0,82.0,84.0,72.0,44.0,1
6.0,-31.0,84.0,-20.0,-6.0,-3.0,-4.0,-3.0,6.0,4.0,0.0,4.0,4.0,4.0,6.0,8.0,1
0.0,-19.0,83.0,-8.0,0.0,-2.0,2.0,3.0,7.0,6.0,10.0,7.0,8.0,8.0,-3.0,6.0,1
25.0,141.0,-415.0,94.0,84.0,73.0,92.0,83.0,-64.0,-43.0,-50.0,-72.0,-44.0,-30.0,-21.0,-47.0,1
2.0,80.0,-235.0,60.0,12.0,5.0,0.0,-7.0,-27.0,-25.0,-46.0,-60.0,-28.0,-25.0,-11.0,-13.0,1
-9.0,101.0,-324.0,54.0,-4.0,-15.0,-15.0,-17.0,-7.0,-13.0,-7.0,-14.0,-9.0,-10.0,-12.0,-4.0,1
-17.0,13.0,202.0,-4.0,-3.0,30.0,38.0,56.0,85.0,91.0,94.0,126.0,81.0,65.0,28.0,54.0,1
25.0,184.0,-374.0,112.0,36.0,24.0,29.0,25.0,0.0,1.0,-22.0,-20.0,-10.0,-3.0,21.0,14.0,1
32.0,91.0,-99.0,64.0,31.0,33.0,41.0,38.0,14.0,14.0,12.0,15.0,14.0,11.0,12.0,21.0,1
11.0,-28.0,88.0,-27.0,-2.0,-3.0,-3.0,-1.0,-7.0,-9.0,-11.0,-11.0,-12.0,-9.0,2.0,-4.0,1
-26.0,-43.0,6.0,-41.0,-26.0,-37.0,-43.0,-41.0,-19.0,-15.0,-25.0,5.0,-20.0,-18.0,-23.0,-27.0,1
-2.0,6.0,27.0,6.0,7.0,12.0,8.0,7.0,13.0,16.0,11.0,9.0,8.0,9.0,17.0,12.0,1
42.0,60.0,-42.0,50.0,35.0,35.0,48.0,45.0,17.0,15.0,7.0,10.0,14.0,4.0,-9.0,21.0,1
34.0,-59.0,469.0,-82.0,-11.0,35.0,46.0,58.0,76.0,63.0,106.0,129.0,83.0,71.0,37.0,62.0,1
21.0,-27.0,109.0,-8.0,14.0,15.0,16.0,18.0,-2.0,5.0,4.0,9.0,9.0,10.0,9.0,4.0,1
-21.0,-40.0,-74.0,-19.0,-7.0,-22.0,-20.0,-30.0,-30.0,-29.0,-39.0,-45.0,-43.0,-39.0,-16.0,-7.0,1
18.0,25.0,-39.0,21.0,16.0,16.0,17.0,18.0,11.0,8.0,9.0,11.0,10.0,9.0,14.0,13.0,1
29.0,153.0,-300.0,108.0,43.0,29.0,24.0,19.0,-9.0,-2.0,-25.0,-28.0,-8.0,-8.0,5.0,-2.0,1
29.0,76.0,-131.0,60.0,35.0,19.0,4.0,5.0,34.0,39.0,54.0,52.0,25.0,106.0,48.0,38.0,1
-10.0,-11.0,-4.0,-11.0,-12.0,-20.0,-29.0,-27.0,-13.0,-7.0,-16.0,-8.0,-11.0,-12.0,0.0,-12.0,1
11.0,90.0,-188.0,35.0,0.0,2.0,11.0,27.0,19.0,-5.0,12.0,65.0,27.0,26.0,0.0,-9.0,1
