0,1,2,3,4,5,6,7,8,9,10,11,12,13,14,15,16
10.0,-235.0,1.0,-34.0,-40.0,-27.0,-21.0,-29.0,-17.0,-24.0,29.0,-20.0,-31.0,-27.0,-16.0,17.0,2
-48.0,151.0,-36.0,-10.0,1.0,7.0,8.0,35.0,31.0,44.0,6.0,7.0,7.0,7.0,11.0,32.0,2
0.0,-136.0,4.0,1.0,1.0,2.0,0.0,-4.0,-23.0,-20.0,1.0,-6.0,-4.0,-4.0,-6.0,-19.0,2
-62.0,-244.0,-87.0,-120.0,-143.0,-142.0,-112.0,217.0,-18.0,-25.0,39.0,-22.0,-43.0,-39.0,-5.0,51.0,2
-24.0,23.0,17.0,27.0,32.0,46.0,38.0,2.0,10.0,27.0,102.0,32.0,35.0,27.0,13.0,-35.0,2
68.0,38.0,-132.0,32.0,38.0,50.0,42.0,134.0,-12.0,23.0,48.0,21.0,51.0,35.0,21.0,-101.0,2
52.0,234.0,46.0,-22.0,0.0,21.0,10.0,25.0,41.0,55.0,9.0,4.0,18.0,6.0,21.0,1.0,2
39.0,-588.0,87.0,-34.0,-55.0,-32.0,-14.0,0.0,0.0,-50.0,122.0,-35.0,-51.0,-47.0,-18.0,128.0,2
19.0,27.0,5.0,15.0,8.0,6.0,8.0,51.0,36.0,32.0,40.0,17.0,12.0,10.0,13.0,29.0,2
71.0,-48.0,21.0,3.0,-6.0,10.0,30.0,82.0,95.0,107.0,7.0,12.0,10.0,18.0,34.0,68.0,2
-2.0,-412.0,30.0,-7.0,-2.0,5.0,2.0,-22.0,-48.0,-59.0,54.0,-2.0,1.0,2.0,-3.0,-29.0,2
41.0,126.0,-6.0,11.0,-1.0,19.0,19.0,3.0,59.0,78.0,0.0,20.0,22.0,32.0,36.0,34.0,2
22.0,1.0,17.0,14.0,10.0,8.0,11.0,12.0,3.0,5.0,8.0,1.0,2.0,2.0,3.0,8.0,2
-21.0,36.0,-27.0,-11.0,8.0,11.0,8.0,9.0,-26.0,-15.0,-10.0,3.0,8.0,7.0,0.0,-27.0,2
32.0,45.0,34.0,29.0,25.0,24.0,17.0,59.0,18.0,18.0,-3.0,10.0,18.0,21.0,24.0,17.0,2
54.0,211.0,19.0,61.0,43.0,43.0,51.0,51.0,68.0,64.0,8.0,51.0,47.0,47.0,48.0,57.0,2
0.0,-169.0,4.0,-3.0,-6.0,-4.0,-5.0,-12.0,-24.0,-20.0,8.0,-1.0,-1.0,-1.0,-4.0,-18.0,2
-14.0,171.0,-35.0,14.0,18.0,10.0,5.0,12.0,5.0,1.0,-41.0,8.0,13.0,9.0,4.0,-7.0,2
43.0,-64.0,48.0,-40.0,-17.0,6.0,10.0,-5.0,12.0,16.0,110.0,1.0,4.0,7.0,-7.0,19.0,2
56.0,-121.0,19.0,25.0,17.0,12.0,12.0,-18.0,4.0,-3.0,29.0,15.0,13.0,11.0,9.0,7.0,2
-28.0,168.0,-7.0,-8.0,-3.0,1.0,2.0,36.0,43.0,47.0,-1.0,5.0,6.0,7.0,12.0,43.0,2
-44.0,-13.0,-4.0,-56.0,-57.0,-41.0,-58.0,-116.0,-103.0,-73.0,49.0,-23.0,-35.0,-38.0,-47.0,-82.0,2
-68.0,182.0,13.0,-66.0,-92.0,-111.0,-172.0,-245.0,-57.0,-41.0,86.0,-27.0,-39.0,-43.0,-29.0,11.0,2
0.0,-97.0,-30.0,-28.0,-21.0,-17.0,-12.0,-12.0,-5.0,-1.0,27.0,4.0,-6.0,-6.0,-5.0,-6.0,2
-16.0,-1.0,-12.0,-10.0,-7.0,-6.0,-8.0,-11.0,-2.0,0.0,0.0,-3.0,-3.0,-4.0,-3.0,-3.0,2
-16.0,-229.0,-15.0,-43.0,-46.0,-30.0,-23.0,-28.0,-27.0,-31.0,32.0,-18.0,-32.0,-32.0,-19.0,19.0,2
-5.0,-109.0,14.0,9.0,7.0,2.0,-10.0,-39.0,-9.0,-12.0,-1.0,-1.0,-4.0,-5.0,-12.0,-10.0,2
-65.0,343.0,25.0,-74.0,-75.0,-69.0,-112.0,-242.0,-77.0,-35.0,76.0,-38.0,-41.0,-44.0,-23.0,-6.0,2
5.0,31.0,-9.0,7.0,5.0,8.0,23.0,50.0,6.0,4.0,7.0,3.0,7.0,10.0,17.0,19.0,2
-77.0,195.0,-45.0,-33.0,-25.0,-21.0,-13.0,-4.0,9.0,-2.0,-18.0,-17.0,-18.0,-20.0,-13.0,19.0,2
62.0,163.0,12.0,30.0,13.0,32.0,37.0,23.0,72.0,93.0,7.0,35.0,38.0,43.0,45.0,43.0,2
35.0,39.0,53.0,24.0,11.0,8.0,7.0,6.0,15.0,10.0,-6.0,2.0,6.0,9.0,7.0,5.0,2
50.0,-251.0,54.0,-26.0,-54.0,-32.0,-3.0,10.0,74.0,43.0,111.0,-17.0,-27.0,-17.0,2.0,142.0,2
33.0,-101.0,106.0,-38.0,-14.0,7.0,12.0,-11.0,-12.0,-17.0,148.0,7.0,5.0,2.0,0.0,8.0,2
7.0,44.0,21.0,20.0,20.0,17.0,19.0,13.0,9.0,19.0,11.0,8.0,10.0,10.0,10.0,5.0,2
-27.0,253.0,0.0,-3.0,-3.0,-2.0,6.0,23.0,9.0,14.0,21.0,8.0,1.0,-1.0,8.0,24.0,2
-87.0,-151.0,-38.0,-6.0,5.0,9.0,13.0,-15.0,13.0,17.0,4.0,-3.0,-4.0,-2.0,0.0,13.0,2
60.0,11.0,7.0,-2.0,-11.0,6.0,26.0,79.0,96.0,114.0,-2.0,24.0,27.0,31.0,39.0,61.0,2
-20.0,2.0,-2.0,-11.0,-16.0,-15.0,-22.0,-12.0,-13.0,-8.0,-12.0,-12.0,-11.0,-9.0,-11.0,-16.0,2
14.0,192.0,-4.0,46.0,55.0,45.0,35.0,47.0,22.0,17.0,-24.0,24.0,28.0,29.0,25.0,8.0,2
-68.0,-66.0,-61.0,-41.0,-27.0,-21.0,-23.0,-26.0,-26.0,-15.0,6.0,-5.0,-12.0,-12.0,-14.0,-25.0,2
18.0,-56.0,7.0,-5.0,-9.0,-8.0,-8.0,-12.0,-6.0,-11.0,4.0,-6.0,-9.0,-11.0,-12.0,-9.0,2
-23.0,90.0,15.0,-1.0,4.0,7.0,1.0,21.0,3.0,12.0,-8.0,2.0,5.0,7.0,7.0,-9.0,2
-17.0,14.0,19.0,-2.0,-16.0,-22.0,-20.0,6.0,23.0,13.0,-4.0,-6.0,-10.0,-10.0,0.0,42.0,2
27.0,-77.0,10.0,35.0,29.0,18.0,17.0,-38.0,23.0,5.0,25.0,24.0,22.0,21.0,17.0,23.0,2
4.0,-105.0,16.0,5.0,4.0,1.0,2.0,-24.0,-18.0,-23.0,-1.0,-1.0,-1.0,-3.0,-5.0,-12.0,2
6.0,-41.0,11.0,-3.0,7.0,0.0,-12.0,-33.0,-17.0,-14.0,5.0,7.0,5.0,8.0,3.0,-11.0,2
11.0,32.0,11.0,16.0,19.0,17.0,22.0,20.0,-2.0,4.0,5.0,8.0,9.0,8.0,7.0,-1.0,2
8.0,-35.0,1.0,-29.0,-12.0,9.0,8.0,-24.0,-4.0,-10.0,43.0,-3.0,-7.0,-7.0,-2.0,-1.0,2
-43.0,-73.0,-76.0,-42.0,-24.0,-20.0,-17.0,-10.0,-13.0,-9.0,5.0,-11.0,-13.0,-14.0,-12.0,-11.0,2
2.0,-14.0,-65.0,-140.0,-1.0,-18.0,-154.0,-216.0,-106.0,-63.0,35.0,-30.0,3.0,-12.0,-55.0,-201.0,2
-118.0,98.0,-86.0,-32.0,-7.0,-2.0,3.0,2.0,8.0,11.0,13.0,-5.0,-4.0,-3.0,0.0,11.0,2
-15.0,-41.0,0.0,-30.0,-25.0,-24.0,-25.0,-80.0,-17.0,-16.0,17.0,-21.0,-29.0,-25.0,-11.0,13.0,2
-13.0,-46.0,-12.0,-6.0,-1.0,-1.0,-2.0,-20.0,17.0,11.0,8.0,0.0,-1.0,-1.0,-7.0,-14.0,2
196.0,-1503.0,56.0,34.0,19.0,21.0,9.0,-81.0,-35.0,-34.0,12.0,-6.0,-13.0,-16.0,-20.0,-31.0,2
-23.0,-152.0,-3.0,9.0,36.0,48.0,54.0,-196.0,-32.0,-41.0,-51.0,-31.0,-25.0,-24.0,-27.0,-22.0,2
21.0,-338.0,55.0,4.0,26.0,28.0,34.0,0.0,-28.0,-25.0,89.0,17.0,17.0,11.0,7.0,-11.0,2
12.0,-355.0,41.0,-106.0,-88.0,-66.0,-37.0,-24.0,2.0,-35.0,55.0,-63.0,-76.0,-63.0,-30.0,87.0,2
28.0,63.0,46.0,25.0,25.0,23.0,20.0,22.0,2.0,3.0,-11.0,12.0,18.0,20.0,15.0,5.0,2
-29.0,-25.0,-10.0,-40.0,-21.0,-2.0,1.0,-85.0,1.0,-4.0,30.0,-15.0,-14.0,-12.0,-8.0,9.0,2
59.0,176.0,12.0,33.0,28.0,45.0,68.0,78.0,112.0,102.0,-1.0,42.0,43.0,46.0,76.0,125.0,2
8.0,-13.0,39.0,-6.0,-10.0,6.0,1.0,-35.0,-12.0,-15.0,46.0,5.0,-2.0,-4.0,-8.0,-24.0,2
13.0,23.0,11.0,8.0,5.0,-4.0,-12.0,22.0,-4.0,1.0,2.0,2.0,2.0,2.0,0.0,-9.0,2
-22.0,-48.0,-21.0,-32.0,-21.0,-7.0,-10.0,-8.0,16.0,28.0,63.0,9.0,1.0,2.0,7.0,29.0,2
9.0,31.0,9.0,2.0,-11.0,-7.0,-13.0,-9.0,-1.0,3.0,-7.0,-27.0,-19.0,-24.0,-12.0,-25.0,2
-37.0,104.0,-42.0,-19.0,-27.0,-29.0,-38.0,-8.0,-24.0,-6.0,-14.0,-13.0,-11.0,-12.0,-14.0,-39.0,2
-32.0,-24.0,12.0,6.0,50.0,104.0,138.0,-192.0,14.0,23.0,78.0,-3.0,-24.0,-31.0,-23.0,41.0,2
27.0,132.0,-4.0,21.0,3.0,5.0,21.0,-1.0,41.0,50.0,-37.0,13.0,14.0,25.0,25.0,38.0,2
10.0,-5.0,20.0,9.0,2.0,1.0,-1.0,-3.0,-1.0,-5.0,1.0,2.0,3.0,4.0,5.0,3.0,2
17.0,-308.0,37.0,6.0,7.0,13.0,12.0,-7.0,-45.0,-36.0,43.0,5.0,12.0,14.0,3.0,-30.0,2
-97.0,167.0,-54.0,-30.0,-35.0,-32.0,-19.0,35.0,36.0,10.0,-1.0,-19.0,-28.0,-29.0,-5.0,109.0,2
38.0,-3.0,13.0,11.0,8.0,7.0,23.0,46.0,58.0,46.0,20.0,10.0,6.0,6.0,24.0,78.0,2
-24.0,-29.0,5.0,-50.0,-38.0,-20.0,-24.0,-59.0,-15.0,-13.0,54.0,-13.0,-25.0,-32.0,-21.0,16.0,2
74.0,274.0,181.0,-4.0,44.0,60.0,9.0,-39.0,-65.0,-37.0,114.0,4.0,13.0,0.0,-8.0,-85.0,2
8.0,-46.0,19.0,-28.0,-12.0,7.0,3.0,-53.0,-25.0,-19.0,66.0,7.0,1.0,0.0,-8.0,-58.0,2
5.0,-32.0,32.0,-13.0,-7.0,12.0,1.0,-42.0,-23.0,-23.0,50.0,7.0,1.0,3.0,-4.0,-39.0,2
10.0,462.0,-16.0,68.0,74.0,57.0,41.0,122.0,21.0,17.0,-46.0,51.0,62.0,63.0,38.0,-31.0,2
-7.0,-55.0,0.0,-10.0,-6.0,-4.0,-2.0,-6.0,-10.0,-12.0,17.0,-3.0,-2.0,-3.0,-3.0,-3.0,2
-23.0,-3.0,32.0,-17.0,-17.0,-2.0,0.0,2.0,25.0,29.0,64.0,8.0,-1.0,-4.0,6.0,40.0,2
-9.0,29.0,17.0,4.0,5.0,4.0,-6.0,-7.0,1.0,11.0,7.0,6.0,8.0,11.0,10.0,3.0,2
-62.0,-109.0,26.0,-32.0,-40.0,-23.0,-32.0,-82.0,-47.0,-40.0,17.0,-23.0,-28.0,-28.0,-28.0,-14.0,2
-130.0,73.0,-89.0,-166.0,-240.0,-283.0,-307.0,-239.0,-72.0,-58.0,73.0,-64.0,-96.0,-99.0,-68.0,0.0,2
-4.0,185.0,-27.0,-57.0,-12.0,6.0,-8.0,5.0,48.0,57.0,27.0,-11.0,-1.0,-12.0,4.0,11.0,2
16.0,-92.0,19.0,7.0,5.0,3.0,5.0,3.0,-3.0,-13.0,-6.0,0.0,-1.0,-1.0,-1.0,-4.0,2
-26.0,116.0,-39.0,4.0,6.0,-7.0,-22.0,18.0,-15.0,-16.0,-47.0,-1.0,1.0,1.0,-1.0,-28.0,2
-16.0,-261.0,-24.0,-47.0,-51.0,-38.0,-30.0,-37.0,-31.0,-43.0,14.0,-29.0,-41.0,-39.0,-27.0,10.0,2
38.0,-36.0,7.0,3.0,17.0,25.0,32.0,11.0,0.0,4.0,8.0,5.0,7.0,8.0,11.0,3.0,2
14.0,109.0,-8.0,60.0,36.0,27.0,26.0,48.0,23.0,5.0,-26.0,31.0,24.0,21.0,22.0,16.0,2
8.0,33.0,-6.0,-17.0,-11.0,-9.0,-7.0,-7.0,17.0,15.0,8.0,2.0,-2.0,-2.0,1.0,14.0,2
53.0,-87.0,38.0,4.0,-25.0,-11.0,6.0,25.0,76.0,70.0,75.0,3.0,-3.0,8.0,20.0,93.0,2
17.0,-489.0,49.0,-78.0,-71.0,-48.0,-7.0,-24.0,-11.0,-43.0,132.0,-37.0,-45.0,-47.0,-37.0,55.0,2
8.0,25.0,40.0,-28.0,-34.0,-11.0,-9.0,-11.0,25.0,23.0,48.0,-7.0,-15.0,-17.0,-7.0,30.0,2
10.0,-447.0,69.0,-67.0,-62.0,-38.0,-26.0,-38.0,-41.0,-66.0,83.0,-45.0,-55.0,-50.0,-29.0,25.0,2
92.0,152.0,117.0,-54.0,35.0,27.0,-96.0,-150.0,-42.0,-12.0,73.0,0.0,23.0,5.0,-23.0,-107.0,2
-23.0,-20.0,-10.0,-4.0,-10.0,-17.0,-34.0,-39.0,-43.0,-29.0,-20.0,-11.0,-8.0,-9.0,-23.0,-50.0,2
-142.0,140.0,-75.0,-41.0,-19.0,-14.0,-7.0,-8.0,7.0,8.0,8.0,-9.0,-11.0,-15.0,-12.0,7.0,2
7.0,-101.0,-7.0,6.0,8.0,6.0,3.0,10.0,2.0,-2.0,6.0,3.0,2.0,1.0,0.0,3.0,2
-122.0,141.0,-42.0,-111.0,-125.0,-131.0,-168.0,-255.0,-39.0,-22.0,112.0,-30.0,-59.0,-69.0,-50.0,17.0,2
34.0,-49.0,28.0,-7.0,6.0,31.0,6.0,-5.0,43.0,45.0,24.0,-11.0,-22.0,2.0,14.0,38.0,2
5.0,-225.0,29.0,11.0,30.0,27.0,17.0,-8.0,-22.0,-23.0,52.0,10.0,14.0,20.0,11.0,-13.0,2
-5.0,-267.0,-17.0,-36.0,-36.0,-28.0,-17.0,-29.0,-26.0,-47.0,5.0,-21.0,-34.0,-33.0,-21.0,18.0,2
-4.0,-113.0,-44.0,-18.0,-12.0,-12.0,-11.0,-20.0,-39.0,-48.0,-42.0,-24.0,-18.0,-17.0,-21.0,-32.0,2
-5.0,-8.0,55.0,-14.0,-27.0,-10.0,-16.0,-65.0,-63.0,-59.0,-8.0,-47.0,-35.0,-37.0,-33.0,-49.0,2
21.0,256.0,-14.0,30.0,36.0,35.0,32.0,32.0,51.0,54.0,-13.0,31.0,39.0,31.0,31.0,31.0,2
9.0,1.0,11.0,-25.0,-17.0,4.0,9.0,-52.0,10.0,13.0,65.0,3.0,-7.0,-10.0,-5.0,13.0,2
-49.0,245.0,-28.0,-53.0,-38.0,-29.0,-65.0,-157.0,-88.0,-64.0,85.0,-3.0,-13.0,-32.0,-43.0,-86.0,2
105.0,431.0,113.0,19.0,23.0,39.0,27.0,30.0,39.0,25.0,97.0,18.0,17.0,11.0,17.0,36.0,2
-10.0,128.0,-7.0,29.0,23.0,20.0,5.0,16.0,8.0,12.0,11.0,19.0,27.0,25.0,16.0,-7.0,2
6.0,-171.0,40.0,-73.0,-64.0,-46.0,-31.0,14.0,53.0,6.0,135.0,-29.0,-49.0,-52.0,-25.0,171.0,2
12.0,56.0,7.0,15.0,10.0,10.0,12.0,10.0,2.0,4.0,1.0,5.0,8.0,10.0,7.0,0.0,2
65.0,-1066.0,99.0,-35.0,-36.0,-8.0,25.0,-171.0,-88.0,-112.0,151.0,-31.0,-47.0,-48.0,-37.0,27.0,2
-34.0,-18.0,20.0,-35.0,-31.0,-8.0,-7.0,-53.0,-4.0,-11.0,22.0,-23.0,-23.0,-21.0,-13.0,0.0,2
23.0,-128.0,-1.0,20.0,16.0,17.0,15.0,-32.0,-14.0,-18.0,0.0,-3.0,0.0,2.0,-1.0,-5.0,2
4.0,-122.0,49.0,-56.0,-52.0,-26.0,-5.0,-2.0,41.0,14.0,136.0,-20.0,-27.0,-23.0,-7.0,97.0,2
2.0,468.0,-26.0,46.0,55.0,47.0,32.0,109.0,17.0,12.0,-56.0,38.0,49.0,52.0,33.0,-33.0,2
-3.0,-31.0,6.0,-8.0,-10.0,-12.0,-15.0,-14.0,-2.0,-12.0,1.0,-4.0,-8.0,-8.0,-7.0,4.0,2
-26.0,-270.0,-4.0,-37.0,-15.0,5.0,32.0,-72.0,-19.0,-22.0,16.0,-27.0,-32.0,-33.0,-17.0,30.0,2
-68.0,-64.0,16.0,-5.0,26.0,68.0,90.0,-170.0,-9.0,-9.0,58.0,-7.0,-27.0,-31.0,-22.0,27.0,2
-43.0,-61.0,-94.0,-73.0,-57.0,-38.0,-33.0,-192.0,-10.0,-1.0,82.0,-23.0,-36.0,-38.0,-26.0,10.0,2
-58.0,200.0,3.0,5.0,14.0,15.0,20.0,20.0,23.0,21.0,5.0,9.0,11.0,10.0,12.0,25.0,2
-19.0,-172.0,1.0,14.0,51.0,82.0,113.0,-187.0,14.0,14.0,27.0,11.0,0.0,-6.0,-1.0,27.0,2
-101.0,200.0,-56.0,-81.0,-60.0,-34.0,-37.0,-47.0,2.0,-12.0,94.0,-21.0,-33.0,-39.0,-24.0,26.0,2
-33.0,2.0,-20.0,-19.0,-12.0,-12.0,-20.0,-8.0,-25.0,-22.0,-15.0,-9.0,-6.0,-7.0,-13.0,-35.0,2
48.0,408.0,20.0,34.0,35.0,48.0,51.0,113.0,84.0,96.0,-21.0,48.0,58.0,60.0,56.0,34.0,2
-66.0,-50.0,-37.0,-56.0,-69.0,-51.0,-34.0,-17.0,-25.0,-26.0,78.0,-32.0,-53.0,-53.0,-24.0,32.0,2
-10.0,-114.0,-17.0,-19.0,-19.0,-7.0,15.0,25.0,14.0,14.0,65.0,6.0,-7.0,-5.0,11.0,41.0,2
42.0,-16.0,19.0,8.0,25.0,21.0,17.0,10.0,0.0,3.0,23.0,18.0,14.0,13.0,10.0,5.0,2
66.0,12.0,10.0,1.0,-7.0,9.0,30.0,84.0,98.0,117.0,1.0,27.0,30.0,33.0,41.0,63.0,2
175.0,-1018.0,67.0,48.0,36.0,37.0,37.0,-3.0,-36.0,-43.0,-8.0,-1.0,-1.0,-1.0,-4.0,-23.0,2
-7.0,7.0,1.0,-5.0,1.0,-2.0,-7.0,10.0,19.0,23.0,20.0,9.0,2.0,-3.0,-2.0,7.0,2
29.0,252.0,-16.0,32.0,27.0,23.0,25.0,6.0,36.0,61.0,-33.0,27.0,33.0,35.0,22.0,-9.0,2
25.0,192.0,11.0,6.0,-12.0,-2.0,4.0,6.0,55.0,59.0,0.0,13.0,6.0,14.0,17.0,45.0,2
11.0,17.0,17.0,22.0,31.0,39.0,62.0,7.0,-6.0,0.0,11.0,14.0,19.0,23.0,16.0,-17.0,2
-30.0,-103.0,-59.0,-27.0,-13.0,-10.0,-9.0,-9.0,-2.0,-3.0,-2.0,-6.0,-7.0,-7.0,-6.0,-7.0,2
36.0,-103.0,33.0,16.0,6.0,3.0,5.0,2.0,-32.0,-44.0,-17.0,-9.0,-7.0,-4.0,-5.0,-20.0,2
-8.0,3.0,-31.0,-28.0,-34.0,-33.0,-29.0,8.0,-15.0,-11.0,-12.0,-15.0,-14.0,-11.0,-13.0,-22.0,2
9.0,0.0,-15.0,-7.0,-6.0,-5.0,-1.0,-1.0,2.0,4.0,4.0,8.0,3.0,3.0,3.0,3.0,2
30.0,36.0,20.0,21.0,23.0,23.0,21.0,23.0,-1.0,9.0,8.0,14.0,17.0,17.0,14.0,-4.0,2
17.0,-229.0,-18.0,-15.0,-17.0,-16.0,-8.0,1.0,-13.0,-44.0,9.0,-9.0,-13.0,-10.0,-8.0,-4.0,2
123.0,350.0,154.0,21.0,38.0,51.0,23.0,7.0,22.0,23.0,64.0,23.0,35.0,30.0,25.0,-26.0,2
-33.0,16.0,-54.0,-61.0,-67.0,-47.0,-25.0,-8.0,-2.0,-7.0,89.0,-29.0,-51.0,-54.0,-22.0,46.0,2
46.0,-49.0,41.0,41.0,29.0,19.0,14.0,-37.0,22.0,2.0,12.0,17.0,19.0,19.0,16.0,20.0,2
-3.0,-147.0,-1.0,4.0,3.0,-2.0,2.0,-3.0,-23.0,-28.0,5.0,2.0,-1.0,-3.0,-6.0,-15.0,2
-15.0,-245.0,14.0,-18.0,2.0,26.0,60.0,-52.0,-10.0,-11.0,25.0,-18.0,-24.0,-28.0,-10.0,42.0,2
-70.0,-71.0,-42.0,-50.0,-64.0,-43.0,-21.0,-7.0,-9.0,-11.0,93.0,-20.0,-44.0,-48.0,-19.0,44.0,2
44.0,-100.0,27.0,28.0,19.0,13.0,10.0,9.0,4.0,-10.0,8.0,11.0,11.0,11.0,10.0,8.0,2
-12.0,-15.0,6.0,-12.0,0.0,8.0,5.0,6.0,15.0,20.0,39.0,5.0,0.0,3.0,9.0,29.0,2
-31.0,-192.0,-59.0,-103.0,-132.0,-131.0,-107.0,210.0,1.0,-6.0,41.0,-18.0,-35.0,-32.0,0.0,58.0,2
19.0,6.0,6.0,-1.0,0.0,2.0,1.0,0.0,1.0,10.0,7.0,1.0,2.0,3.0,6.0,0.0,2
-3.0,50.0,-1.0,2.0,0.0,1.0,8.0,2.0,1.0,3.0,-17.0,-4.0,-3.0,-4.0,-6.0,-9.0,2
19.0,-70.0,-5.0,-7.0,-10.0,-8.0,-4.0,-5.0,-3.0,-1.0,7.0,-4.0,-5.0,-4.0,-5.0,-4.0,2
1.0,-96.0,4.0,4.0,5.0,5.0,2.0,0.0,2.0,1.0,17.0,10.0,6.0,5.0,4.0,6.0,2
-20.0,-104.0,-10.0,6.0,5.0,4.0,7.0,-6.0,4.0,-2.0,4.0,3.0,2.0,3.0,2.0,5.0,2
35.0,54.0,39.0,44.0,46.0,56.0,45.0,0.0,-41.0,-5.0,88.0,29.0,39.0,31.0,11.0,-100.0,2
-71.0,2.0,-20.0,0.0,6.0,6.0,-2.0,-18.0,0.0,2.0,2.0,5.0,6.0,7.0,2.0,-13.0,2
10.0,-135.0,13.0,1.0,7.0,8.0,10.0,4.0,-6.0,-14.0,6.0,3.0,6.0,8.0,6.0,-5.0,2
-31.0,134.0,26.0,-67.0,-76.0,-53.0,-39.0,-27.0,14.0,1.0,126.0,-24.0,-50.0,-59.0,-23.0,55.0,2
-5.0,-77.0,14.0,12.0,28.0,45.0,55.0,-51.0,-19.0,-7.0,21.0,5.0,6.0,6.0,0.0,-23.0,2
2.0,-96.0,7.0,3.0,4.0,2.0,0.0,1.0,1.0,0.0,17.0,9.0,6.0,5.0,2.0,5.0,2
-50.0,52.0,-38.0,-20.0,-14.0,-16.0,-19.0,13.0,15.0,17.0,-12.0,-5.0,-3.0,0.0,2.0,24.0,2
23.0,-131.0,39.0,-46.0,-41.0,-26.0,-19.0,-33.0,-18.0,-17.0,32.0,-20.0,-24.0,-27.0,-22.0,-9.0,2
8.0,-643.0,59.0,-62.0,-47.0,-25.0,0.0,-8.0,-17.0,-44.0,124.0,-27.0,-41.0,-44.0,-28.0,76.0,2
3.0,-115.0,22.0,-55.0,-58.0,-33.0,-12.0,-14.0,36.0,13.0,114.0,-28.0,-33.0,-27.0,-15.0,81.0,2
27.0,-167.0,11.0,12.0,25.0,31.0,40.0,15.0,12.0,14.0,9.0,12.0,12.0,13.0,18.0,23.0,2
25.0,11.0,15.0,21.0,16.0,10.0,-3.0,12.0,-1.0,2.0,8.0,13.0,17.0,19.0,9.0,-18.0,2
64.0,177.0,19.0,-34.0,-3.0,20.0,-5.0,82.0,20.0,25.0,45.0,12.0,42.0,41.0,47.0,-20.0,2
14.0,-257.0,25.0,6.0,7.0,10.0,7.0,-8.0,-39.0,-33.0,25.0,0.0,6.0,8.0,-1.0,-30.0,2
6.0,-50.0,2.0,3.0,0.0,-1.0,3.0,15.0,-8.0,-14.0,-37.0,-5.0,1.0,4.0,8.0,6.0,2
11.0,260.0,-31.0,14.0,24.0,21.0,21.0,12.0,52.0,59.0,-20.0,27.0,38.0,30.0,28.0,30.0,2
19.0,-13.0,25.0,5.0,8.0,0.0,-8.0,-32.0,-35.0,-26.0,-7.0,-5.0,-3.0,-1.0,-10.0,-30.0,2
37.0,-73.0,20.0,34.0,54.0,66.0,66.0,-17.0,38.0,34.0,55.0,37.0,30.0,28.0,29.0,46.0,2
66.0,-86.0,21.0,-2.0,-8.0,6.0,24.0,73.0,94.0,103.0,17.0,11.0,9.0,20.0,37.0,74.0,2
15.0,122.0,-1.0,30.0,37.0,30.0,18.0,-4.0,-20.0,-9.0,-37.0,26.0,33.0,29.0,12.0,-56.0,2
27.0,38.0,29.0,16.0,3.0,-1.0,-2.0,2.0,13.0,12.0,3.0,1.0,2.0,1.0,0.0,6.0,2
15.0,17.0,14.0,11.0,10.0,10.0,10.0,5.0,6.0,10.0,9.0,6.0,6.0,6.0,5.0,3.0,2
-11.0,34.0,-9.0,-13.0,-14.0,-14.0,-7.0,3.0,-3.0,-1.0,-5.0,-6.0,-8.0,-9.0,-7.0,6.0,2
77.0,141.0,-5.0,64.0,78.0,63.0,43.0,69.0,-18.0,-12.0,-122.0,19.0,55.0,57.0,40.0,-93.0,2
-55.0,-132.0,-15.0,-23.0,-19.0,-16.0,5.0,13.0,-13.0,-32.0,4.0,-3.0,-9.0,-10.0,-4.0,12.0,2
-76.0,197.0,-65.0,-38.0,-31.0,-27.0,-9.0,15.0,14.0,5.0,-2.0,-24.0,-27.0,-25.0,-11.0,36.0,2
25.0,43.0,3.0,9.0,19.0,21.0,17.0,34.0,-1.0,10.0,22.0,13.0,14.0,14.0,15.0,-10.0,2
-27.0,2.0,-22.0,-18.0,-12.0,-11.0,-16.0,-4.0,-25.0,-19.0,-13.0,-9.0,-6.0,-5.0,-11.0,-33.0,2
-6.0,4.0,4.0,-17.0,-19.0,-8.0,-5.0,-120.0,19.0,27.0,98.0,1.0,-7.0,-8.0,1.0,32.0,2
33.0,-160.0,2.0,8.0,1.0,0.0,8.0,15.0,5.0,-13.0,16.0,2.0,-2.0,-4.0,0.0,11.0,2
35.0,-90.0,8.0,-18.0,-18.0,-11.0,-7.0,-54.0,-31.0,-22.0,13.0,-7.0,-16.0,-17.0,-18.0,-27.0,2
42.0,301.0,-5.0,41.0,51.0,51.0,50.0,37.0,74.0,85.0,-1.0,42.0,53.0,46.0,46.0,49.0,2
11.0,-162.0,-16.0,0.0,-2.0,-1.0,4.0,3.0,4.0,-8.0,12.0,1.0,-3.0,-3.0,-3.0,6.0,2
20.0,59.0,66.0,19.0,23.0,22.0,13.0,23.0,39.0,27.0,11.0,15.0,16.0,17.0,19.0,32.0,2
31.0,-97.0,101.0,-39.0,-14.0,8.0,12.0,-12.0,-16.0,-20.0,141.0,6.0,6.0,3.0,2.0,0.0,2
19.0,34.0,27.0,23.0,21.0,16.0,10.0,14.0,14.0,10.0,0.0,14.0,17.0,17.0,12.0,11.0,2
-49.0,-39.0,-52.0,-32.0,-25.0,-25.0,-22.0,-23.0,-11.0,-17.0,-27.0,-20.0,-16.0,-15.0,-10.0,-8.0,2
14.0,287.0,-9.0,30.0,42.0,41.0,37.0,34.0,27.0,38.0,-36.0,31.0,40.0,34.0,32.0,-8.0,2
-51.0,-62.0,-26.0,-9.0,33.0,67.0,74.0,-61.0,-3.0,-10.0,52.0,5.0,-12.0,-17.0,-10.0,32.0,2
-9.0,-21.0,-36.0,-2.0,16.0,20.0,14.0,17.0,-10.0,-8.0,7.0,7.0,9.0,11.0,8.0,-16.0,2
19.0,-50.0,-1.0,-12.0,11.0,24.0,34.0,-50.0,-10.0,-13.0,35.0,2.0,-13.0,-19.0,-16.0,6.0,2
1.0,57.0,2.0,14.0,20.0,17.0,20.0,22.0,8.0,17.0,2.0,8.0,11.0,8.0,6.0,1.0,2
24.0,193.0,-18.0,19.0,0.0,3.0,11.0,14.0,48.0,48.0,-15.0,19.0,15.0,20.0,21.0,36.0,2
25.0,25.0,5.0,1.0,-1.0,-14.0,-7.0,9.0,-24.0,-32.0,-70.0,-18.0,-16.0,-16.0,-9.0,-33.0,2
-6.0,1.0,-9.0,-6.0,-4.0,-4.0,-4.0,-7.0,0.0,3.0,5.0,2.0,1.0,1.0,-1.0,-2.0,2
-1.0,30.0,11.0,-5.0,-11.0,-11.0,-8.0,10.0,-11.0,-10.0,-11.0,-14.0,-12.0,-12.0,-8.0,-16.0,2
-1.0,50.0,-27.0,25.0,27.0,17.0,17.0,12.0,-12.0,-15.0,-66.0,12.0,19.0,20.0,8.0,-31.0,2
17.0,10.0,-12.0,12.0,-5.0,-1.0,17.0,5.0,54.0,58.0,-30.0,11.0,11.0,22.0,31.0,64.0,2
47.0,53.0,39.0,17.0,12.0,12.0,6.0,9.0,15.0,14.0,0.0,3.0,8.0,13.0,14.0,18.0,2
-59.0,-76.0,-64.0,-75.0,-49.0,-33.0,-28.0,-82.0,-24.0,-13.0,46.0,-19.0,-37.0,-44.0,-33.0,8.0,2
-109.0,761.0,47.0,-75.0,-70.0,-36.0,55.0,-133.0,-60.0,-73.0,-14.0,-68.0,-81.0,-73.0,-44.0,-1.0,2
-20.0,-141.0,-13.0,-31.0,-25.0,-18.0,-8.0,-5.0,-30.0,-31.0,17.0,-13.0,-22.0,-21.0,-12.0,-10.0,2
8.0,2.0,10.0,16.0,22.0,19.0,19.0,25.0,20.0,18.0,25.0,18.0,17.0,18.0,18.0,28.0,2
33.0,-61.0,41.0,-4.0,-12.0,11.0,12.0,4.0,52.0,39.0,87.0,-13.0,-21.0,-7.0,12.0,78.0,2
36.0,34.0,72.0,23.0,10.0,2.0,-10.0,26.0,-18.0,-27.0,-33.0,-2.0,5.0,7.0,1.0,-13.0,2
-24.0,-260.0,-70.0,-62.0,-55.0,-38.0,-13.0,8.0,13.0,-8.0,27.0,-20.0,-38.0,-39.0,-10.0,65.0,2
-42.0,-10.0,55.0,-36.0,-10.0,12.0,4.0,-31.0,-76.0,-28.0,116.0,-15.0,-12.0,-14.0,-13.0,-44.0,2
14.0,-177.0,65.0,-61.0,-36.0,-17.0,-12.0,-5.0,-12.0,-27.0,138.0,-18.0,-28.0,-31.0,-19.0,38.0,2
-31.0,-92.0,-81.0,-50.0,-20.0,-18.0,-20.0,-41.0,-20.0,-13.0,19.0,-6.0,-12.0,-7.0,-10.0,-16.0,2
44.0,179.0,19.0,44.0,51.0,43.0,32.0,7.0,31.0,25.0,-37.0,25.0,26.0,27.0,14.0,-12.0,2
-18.0,114.0,-2.0,1.0,11.0,12.0,5.0,19.0,4.0,20.0,-1.0,2.0,7.0,8.0,8.0,-5.0,2
-17.0,5.0,-24.0,-19.0,-8.0,-6.0,-8.0,8.0,-8.0,-3.0,10.0,2.0,0.0,0.0,-1.0,-19.0,2
38.0,-89.0,80.0,-26.0,-20.0,1.0,26.0,31.0,62.0,34.0,155.0,-1.0,-7.0,-4.0,11.0,116.0,2
19.0,5.0,32.0,0.0,-1.0,8.0,6.0,-20.0,-6.0,-9.0,46.0,9.0,2.0,1.0,1.0,-6.0,2
-59.0,86.0,-11.0,29.0,37.0,30.0,25.0,-3.0,-10.0,-33.0,-66.0,7.0,12.0,16.0,6.0,-24.0,2
8.0,21.0,39.0,-44.0,-36.0,-18.0,-24.0,-81.0,-21.0,-12.0,57.0,-14.0,-24.0,-28.0,-23.0,4.0,2
41.0,40.0,56.0,-10.0,-8.0,12.0,15.0,19.0,40.0,42.0,74.0,14.0,7.0,7.0,19.0,54.0,2
-9.0,-5.0,-12.0,-27.0,-16.0,-9.0,-5.0,-5.0,-9.0,-6.0,16.0,-8.0,-11.0,-10.0,-6.0,8.0,2
15.0,567.0,6.0,-18.0,20.0,63.0,85.0,231.0,59.0,95.0,119.0,34.0,48.0,34.0,49.0,43.0,2
-24.0,-7.0,-27.0,-26.0,-19.0,-20.0,-26.0,-28.0,-16.0,-12.0,-16.0,-17.0,-17.0,-18.0,-20.0,-20.0,2
-26.0,10.0,-24.0,-13.0,-8.0,-3.0,3.0,-8.0,-21.0,-13.0,-11.0,-10.0,-6.0,-6.0,-8.0,-15.0,2
41.0,225.0,4.0,29.0,11.0,15.0,25.0,24.0,70.0,74.0,2.0,31.0,30.0,38.0,38.0,56.0,2
-11.0,-51.0,-10.0,-8.0,6.0,6.0,3.0,-20.0,-7.0,-8.0,9.0,4.0,5.0,6.0,2.0,-2.0,2
33.0,29.0,23.0,21.0,43.0,55.0,68.0,-44.0,38.0,32.0,38.0,20.0,12.0,6.0,9.0,31.0,2
34.0,-134.0,-13.0,-8.0,-9.0,-8.0,-5.0,-11.0,-28.0,-37.0,-5.0,-4.0,-4.0,-2.0,-4.0,-18.0,2
-23.0,-13.0,-37.0,-12.0,-7.0,-7.0,-7.0,32.0,15.0,12.0,23.0,6.0,2.0,2.0,6.0,15.0,2
6.0,64.0,13.0,-2.0,-3.0,-7.0,-6.0,4.0,-15.0,-11.0,-18.0,-8.0,-5.0,-6.0,-11.0,-16.0,2
21.0,-257.0,33.0,-91.0,-64.0,-54.0,-27.0,-24.0,-2.0,-21.0,31.0,-49.0,-63.0,-56.0,-24.0,44.0,2
-5.0,-107.0,25.0,9.0,4.0,1.0,1.0,1.0,-4.0,-4.0,6.0,8.0,4.0,4.0,3.0,-4.0,2
2.0,135.0,8.0,-6.0,-4.0,-12.0,-18.0,-2.0,0.0,22.0,-11.0,-1.0,1.0,1.0,-5.0,-21.0,2
14.0,19.0,52.0,-28.0,-17.0,3.0,-1.0,-46.0,9.0,10.0,74.0,4.0,-7.0,-12.0,-3.0,32.0,2
23.0,161.0,12.0,36.0,29.0,23.0,10.0,37.0,35.0,34.0,23.0,26.0,32.0,31.0,26.0,17.0,2
37.0,170.0,-9.0,6.0,6.0,29.0,45.0,57.0,115.0,106.0,-5.0,22.0,17.0,25.0,67.0,136.0,2
5.0,20.0,27.0,13.0,0.0,11.0,-7.0,-59.0,-49.0,-35.0,44.0,-19.0,-12.0,-20.0,-25.0,-49.0,2
37.0,43.0,47.0,27.0,5.0,16.0,2.0,-37.0,-22.0,-11.0,49.0,-3.0,5.0,-2.0,-8.0,-28.0,2
-4.0,-555.0,42.0,-67.0,-70.0,-47.0,-37.0,-47.0,-47.0,-76.0,79.0,-43.0,-55.0,-52.0,-32.0,31.0,2
-21.0,-31.0,-31.0,-32.0,-22.0,-23.0,-22.0,-51.0,10.0,1.0,15.0,-11.0,-17.0,-18.0,-9.0,17.0,2
-19.0,21.0,-19.0,-20.0,-21.0,-22.0,-23.0,-15.0,-32.0,-16.0,-28.0,-15.0,-17.0,-18.0,-20.0,-28.0,2
-32.0,-9.0,14.0,8.0,27.0,39.0,45.0,-83.0,18.0,11.0,19.0,1.0,-4.0,-9.0,-5.0,13.0,2
-20.0,522.0,82.0,-16.0,-14.0,14.0,-2.0,-26.0,3.0,42.0,96.0,7.0,14.0,6.0,21.0,36.0,2
-31.0,-35.0,-37.0,-55.0,-41.0,-25.0,-28.0,-68.0,-15.0,-3.0,59.0,-17.0,-28.0,-29.0,-21.0,10.0,2
8.0,-243.0,-22.0,-19.0,-20.0,-20.0,-19.0,-12.0,-18.0,-42.0,19.0,-3.0,-10.0,-11.0,-12.0,-15.0,2
-21.0,-7.0,-18.0,-13.0,-9.0,-11.0,-18.0,-19.0,-10.0,-6.0,-16.0,-13.0,-11.0,-11.0,-14.0,-12.0,2
-79.0,-178.0,-43.0,-18.0,-13.0,-10.0,-5.0,-17.0,35.0,24.0,32.0,1.0,-6.0,-4.0,7.0,32.0,2
18.0,-126.0,89.0,-58.0,-41.0,-18.0,-15.0,-20.0,8.0,-13.0,140.0,-7.0,-16.0,-18.0,-16.0,63.0,2
-40.0,62.0,1.0,-43.0,-2.0,66.0,140.0,-337.0,-39.0,-40.0,43.0,-40.0,-61.0,-63.0,-44.0,17.0,2
46.0,-103.0,10.0,36.0,78.0,95.0,112.0,-149.0,15.0,15.0,31.0,24.0,18.0,12.0,11.0,21.0,2
-7.0,9.0,1.0,-18.0,1.0,8.0,12.0,10.0,11.0,11.0,35.0,13.0,6.0,6.0,9.0,23.0,2
-9.0,-163.0,-8.0,5.0,1.0,-4.0,-8.0,-82.0,-15.0,-25.0,0.0,-2.0,-5.0,-4.0,-13.0,-27.0,2
27.0,256.0,85.0,5.0,10.0,29.0,24.0,-23.0,17.0,19.0,130.0,25.0,18.0,10.0,7.0,-4.0,2
-3.0,-39.0,-11.0,2.0,0.0,-3.0,-6.0,23.0,13.0,5.0,9.0,9.0,11.0,15.0,16.0,21.0,2
0.0,39.0,20.0,17.0,17.0,19.0,20.0,24.0,23.0,14.0,7.0,14.0,13.0,9.0,6.0,14.0,2
-47.0,-60.0,-45.0,-22.0,-2.0,13.0,37.0,-32.0,-35.0,-25.0,-8.0,-12.0,-11.0,-9.0,-14.0,-43.0,2
20.0,298.0,-1.0,25.0,18.0,31.0,74.0,27.0,55.0,64.0,-10.0,23.0,22.0,22.0,16.0,30.0,2
-54.0,-156.0,-19.0,6.0,38.0,53.0,59.0,-146.0,-27.0,-26.0,-12.0,-10.0,-12.0,-14.0,-17.0,-15.0,2
32.0,-32.0,21.0,-20.0,-32.0,-18.0,-6.0,-14.0,94.0,96.0,97.0,0.0,1.0,3.0,11.0,95.0,2
6.0,-6.0,29.0,10.0,0.0,-6.0,-5.0,0.0,-6.0,-10.0,-13.0,-4.0,-6.0,-8.0,-11.0,-6.0,2
49.0,21.0,42.0,12.0,14.0,12.0,21.0,-6.0,46.0,41.0,43.0,17.0,10.0,11.0,21.0,50.0,2
-91.0,-79.0,-30.0,-29.0,-30.0,-29.0,-28.0,-49.0,-41.0,-33.0,-35.0,-28.0,-27.0,-23.0,-27.0,-57.0,2
5.0,89.0,-25.0,-21.0,-7.0,-3.0,0.0,26.0,2.0,16.0,8.0,2.0,0.0,-3.0,-4.0,-12.0,2
6.0,-347.0,57.0,-80.0,-70.0,-49.0,-33.0,-51.0,-38.0,-54.0,70.0,-45.0,-56.0,-49.0,-36.0,0.0,2
40.0,176.0,5.0,21.0,25.0,19.0,23.0,4.0,36.0,58.0,-12.0,20.0,18.0,22.0,14.0,-3.0,2
32.0,22.0,11.0,-10.0,-16.0,-9.0,7.0,5.0,55.0,46.0,14.0,6.0,0.0,6.0,15.0,79.0,2
25.0,27.0,47.0,-9.0,-12.0,4.0,6.0,-96.0,7.0,15.0,75.0,4.0,-3.0,-8.0,-6.0,7.0,2
-11.0,483.0,37.0,-19.0,-1.0,28.0,15.0,-20.0,32.0,58.0,128.0,19.0,21.0,9.0,28.0,64.0,2
54.0,55.0,30.0,22.0,20.0,34.0,33.0,-2.0,2.0,18.0,91.0,18.0,20.0,10.0,-2.0,-51.0,2
-6.0,164.0,11.0,11.0,11.0,7.0,0.0,23.0,-6.0,4.0,-1.0,7.0,8.0,5.0,1.0,-16.0,2
-37.0,103.0,-81.0,-21.0,-5.0,-8.0,-20.0,16.0,23.0,19.0,-23.0,2.0,6.0,2.0,-4.0,-10.0,2
-9.0,13.0,-21.0,-11.0,-12.0,-12.0,-8.0,-5.0,-9.0,-7.0,-12.0,-10.0,-11.0,-10.0,-10.0,-7.0,2
-54.0,-22.0,-24.0,-43.0,-35.0,-33.0,-37.0,-14.0,-2.0,-7.0,-16.0,-24.0,-26.0,-26.0,-20.0,-5.0,2
33.0,-60.0,35.0,29.0,29.0,26.0,26.0,2.0,8.0,0.0,5.0,12.0,14.0,14.0,9.0,1.0,2
19.0,-204.0,17.0,14.0,0.0,-4.0,-5.0,-4.0,-5.0,-33.0,8.0,1.0,-1.0,0.0,-2.0,2.0,2
29.0,42.0,42.0,-9.0,-1.0,19.0,18.0,17.0,6.0,25.0,76.0,21.0,11.0,7.0,19.0,36.0,2
-6.0,-7.0,-49.0,-8.0,-1.0,-2.0,1.0,9.0,-1.0,0.0,0.0,0.0,5.0,7.0,4.0,0.0,2
0.0,41.0,16.0,5.0,3.0,1.0,0.0,-2.0,-6.0,-7.0,-17.0,-5.0,-1.0,1.0,-3.0,-8.0,2
-132.0,-78.0,-45.0,-44.0,-30.0,-29.0,-25.0,-25.0,-13.0,-16.0,0.0,-18.0,-24.0,-23.0,-19.0,0.0,2
13.0,21.0,15.0,17.0,27.0,36.0,62.0,12.0,-5.0,1.0,11.0,12.0,15.0,15.0,9.0,-17.0,2
10.0,58.0,-12.0,37.0,42.0,30.0,25.0,19.0,-18.0,-21.0,-59.0,19.0,26.0,24.0,7.0,-43.0,2
37.0,-148.0,34.0,7.0,-4.0,2.0,19.0,34.0,9.0,-10.0,-17.0,-19.0,-17.0,-11.0,9.0,54.0,2
-20.0,51.0,-10.0,-4.0,-7.0,-12.0,-21.0,-12.0,-24.0,-20.0,-16.0,-7.0,-5.0,-4.0,-15.0,-33.0,2
16.0,-81.0,25.0,-39.0,-41.0,-28.0,-20.0,-34.0,-12.0,-11.0,16.0,-27.0,-33.0,-28.0,-21.0,-11.0,2
38.0,53.0,40.0,-21.0,-21.0,1.0,3.0,-11.0,-13.0,0.0,62.0,0.0,-5.0,-12.0,-6.0,-5.0,2
31.0,59.0,50.0,29.0,17.0,16.0,21.0,23.0,12.0,7.0,-8.0,3.0,7.0,10.0,11.0,11.0,2
29.0,100.0,-11.0,52.0,37.0,32.0,43.0,41.0,21.0,-3.0,-65.0,21.0,27.0,26.0,32.0,19.0,2
-1.0,-31.0,-5.0,-7.0,-10.0,-10.0,-12.0,-14.0,-8.0,-10.0,-3.0,-5.0,-7.0,-7.0,-7.0,-5.0,2
-69.0,-49.0,-32.0,-83.0,-62.0,-44.0,-60.0,-108.0,-34.0,-24.0,55.0,-23.0,-35.0,-37.0,-29.0,-3.0,2
5.0,-59.0,-7.0,-5.0,-6.0,-7.0,-8.0,-6.0,-11.0,-15.0,2.0,-1.0,-2.0,-1.0,-3.0,-9.0,2
9.0,16.0,-6.0,-8.0,-12.0,-13.0,-14.0,-9.0,-1.0,0.0,-1.0,-3.0,-4.0,-3.0,-3.0,-3.0,2
-40.0,-12.0,-37.0,-18.0,-14.0,-13.0,-14.0,-14.0,-20.0,-20.0,-14.0,-10.0,-12.0,-11.0,-14.0,-19.0,2
14.0,289.0,-10.0,32.0,44.0,46.0,41.0,38.0,29.0,37.0,-38.0,27.0,33.0,27.0,29.0,-8.0,2
-8.0,-153.0,-45.0,-57.0,-53.0,-46.0,-28.0,-14.0,-51.0,-60.0,1.0,-24.0,-37.0,-39.0,-32.0,-32.0,2
-33.0,251.0,4.0,-86.0,-190.0,-346.0,-800.0,50.0,-70.0,-39.0,83.0,-1.0,2.0,-1.0,-10.0,-73.0,2
-122.0,101.0,-85.0,-34.0,-8.0,-3.0,4.0,2.0,10.0,11.0,9.0,-8.0,-7.0,-4.0,0.0,11.0,2
-48.0,58.0,-34.0,-15.0,-10.0,-12.0,-7.0,17.0,14.0,12.0,-2.0,-8.0,-9.0,-7.0,-1.0,17.0,2
43.0,51.0,60.0,45.0,30.0,41.0,21.0,-20.0,-15.0,1.0,64.0,10.0,17.0,7.0,-2.0,-26.0,2
13.0,44.0,-3.0,-5.0,3.0,2.0,0.0,11.0,-2.0,2.0,-3.0,2.0,5.0,5.0,3.0,-5.0,2
-2.0,1.0,0.0,-3.0,-5.0,-4.0,-9.0,-13.0,-1.0,3.0,3.0,1.0,-1.0,-1.0,-3.0,-5.0,2
-4.0,31.0,19.0,19.0,17.0,9.0,3.0,5.0,-17.0,-6.0,10.0,11.0,15.0,16.0,2.0,-44.0,2
40.0,190.0,-6.0,2.0,-8.0,14.0,39.0,63.0,137.0,128.0,15.0,21.0,21.0,24.0,59.0,165.0,2
20.0,271.0,26.0,-31.0,-27.0,-35.0,-120.0,-35.0,-65.0,-18.0,93.0,36.0,46.0,36.0,13.0,-102.0,2
60.0,35.0,34.0,40.0,39.0,40.0,40.0,23.0,19.0,24.0,31.0,25.0,26.0,25.0,25.0,15.0,2
-24.0,-18.0,10.0,-13.0,-35.0,-16.0,4.0,19.0,23.0,17.0,95.0,-3.0,-24.0,-25.0,2.0,66.0,2
13.0,31.0,22.0,3.0,4.0,8.0,11.0,7.0,-3.0,1.0,3.0,7.0,4.0,3.0,6.0,3.0,2
2.0,-53.0,4.0,-7.0,-4.0,-5.0,-5.0,-3.0,-6.0,-14.0,-28.0,-8.0,-1.0,1.0,-1.0,-5.0,2
6.0,-33.0,7.0,1.0,-1.0,-3.0,-2.0,0.0,-10.0,-12.0,-8.0,-6.0,-1.0,-1.0,0.0,-5.0,2
29.0,64.0,52.0,25.0,20.0,16.0,14.0,15.0,20.0,21.0,12.0,17.0,15.0,15.0,13.0,13.0,2
17.0,-141.0,-3.0,4.0,-6.0,-6.0,-3.0,-5.0,-12.0,-25.0,-10.0,-8.0,-7.0,-4.0,-4.0,-4.0,2
18.0,-151.0,4.0,9.0,-6.0,-5.0,5.0,12.0,-4.0,-16.0,2.0,-5.0,-5.0,-5.0,-1.0,5.0,2
-18.0,3.0,10.0,4.0,-4.0,-8.0,-16.0,-17.0,-47.0,-31.0,-28.0,-8.0,-3.0,-3.0,-8.0,-47.0,2
-12.0,29.0,49.0,18.0,13.0,13.0,12.0,7.0,16.0,12.0,-12.0,2.0,7.0,7.0,10.0,14.0,2
-4.0,-16.0,1.0,7.0,13.0,11.0,13.0,21.0,7.0,6.0,-3.0,6.0,7.0,5.0,5.0,7.0,2
-10.0,-204.0,50.0,-56.0,-41.0,-22.0,-16.0,-26.0,-49.0,-41.0,111.0,-25.0,-27.0,-33.0,-25.0,-31.0,2
-12.0,-56.0,-7.0,-29.0,-17.0,-10.0,-7.0,-73.0,-22.0,-20.0,23.0,-14.0,-23.0,-24.0,-13.0,15.0,2
25.0,58.0,15.0,4.0,12.0,12.0,16.0,16.0,7.0,9.0,-5.0,7.0,11.0,10.0,10.0,11.0,2
-9.0,-16.0,-40.0,-8.0,-5.0,-5.0,-1.0,-4.0,-4.0,-5.0,-4.0,-4.0,-5.0,-6.0,-4.0,-6.0,2
5.0,-198.0,46.0,-9.0,-23.0,-10.0,15.0,40.0,25.0,-19.0,-29.0,-36.0,-34.0,-25.0,8.0,102.0,2
5.0,197.0,10.0,29.0,33.0,26.0,10.0,44.0,59.0,46.0,-19.0,21.0,31.0,31.0,19.0,15.0,2
16.0,-39.0,-14.0,-1.0,3.0,6.0,21.0,47.0,37.0,26.0,16.0,-1.0,-3.0,-1.0,18.0,70.0,2
-20.0,229.0,38.0,-20.0,-13.0,2.0,-13.0,-61.0,-56.0,-45.0,78.0,-1.0,-5.0,-13.0,-20.0,-68.0,2
-27.0,142.0,40.0,-48.0,4.0,29.0,-12.0,-45.0,-67.0,-56.0,105.0,-20.0,-16.0,-25.0,-25.0,-70.0,2
31.0,176.0,22.0,56.0,58.0,54.0,46.0,13.0,9.0,24.0,-21.0,39.0,48.0,50.0,31.0,-28.0,2
-8.0,4.0,1.0,-3.0,-3.0,-1.0,-1.0,-4.0,-3.0,-1.0,-4.0,-3.0,-1.0,2.0,2.0,-1.0,2
-25.0,-34.0,-13.0,-17.0,-18.0,-18.0,-22.0,-18.0,-13.0,-17.0,-11.0,-12.0,-12.0,-12.0,-13.0,-14.0,2
35.0,-6.0,27.0,21.0,16.0,15.0,17.0,20.0,17.0,19.0,24.0,15.0,14.0,12.0,12.0,16.0,2
-20.0,-45.0,-20.0,-17.0,-4.0,-8.0,-8.0,-22.0,-17.0,-20.0,-10.0,-10.0,-7.0,-3.0,-3.0,-7.0,2
32.0,-108.0,54.0,25.0,4.0,-3.0,-3.0,-3.0,-4.0,-24.0,-18.0,-8.0,-3.0,0.0,-1.0,3.0,2
-24.0,-47.0,-32.0,-29.0,-1.0,19.0,64.0,-83.0,19.0,10.0,16.0,-10.0,-13.0,-14.0,-3.0,23.0,2
-2.0,-112.0,1.0,-39.0,-46.0,-22.0,-4.0,14.0,-2.0,8.0,66.0,-9.0,-24.0,-24.0,-1.0,24.0,2
-110.0,-83.0,-57.0,-90.0,-86.0,-65.0,-58.0,-78.0,-52.0,-45.0,52.0,-32.0,-55.0,-58.0,-39.0,17.0,2
-11.0,236.0,-24.0,35.0,40.0,31.0,17.0,5.0,-13.0,-15.0,-62.0,15.0,21.0,20.0,13.0,-39.0,2
29.0,9.0,32.0,8.0,12.0,13.0,13.0,-21.0,34.0,35.0,53.0,19.0,11.0,11.0,21.0,44.0,2
-15.0,-24.0,-10.0,-18.0,-17.0,-13.0,-10.0,-7.0,12.0,6.0,21.0,-4.0,-8.0,-8.0,-2.0,22.0,2
-22.0,-39.0,-24.0,-52.0,-39.0,-17.0,-20.0,-23.0,-1.0,7.0,59.0,-6.0,-18.0,-20.0,-7.0,22.0,2
-6.0,14.0,-2.0,-14.0,-17.0,-16.0,-16.0,-14.0,-19.0,-15.0,-18.0,-14.0,-12.0,-12.0,-13.0,-22.0,2
71.0,73.0,32.0,-156.0,-212.0,-192.0,-224.0,-203.0,-47.0,-30.0,-72.0,-54.0,-17.0,-20.0,-23.0,-111.0,2
34.0,-103.0,-15.0,-18.0,-17.0,-16.0,-14.0,-36.0,-32.0,-45.0,-28.0,-18.0,-18.0,-15.0,-16.0,-19.0,2
-4.0,-198.0,50.0,-74.0,-47.0,-26.0,-17.0,-26.0,-47.0,-49.0,124.0,-29.0,-34.0,-38.0,-29.0,-25.0,2
-52.0,-19.0,-60.0,-42.0,-45.0,-45.0,-30.0,7.0,-18.0,-32.0,-40.0,-33.0,-35.0,-33.0,-14.0,38.0,2
12.0,274.0,-5.0,12.0,-8.0,-6.0,0.0,-28.0,42.0,50.0,-12.0,10.0,14.0,19.0,12.0,19.0,2
11.0,113.0,-19.0,24.0,10.0,12.0,30.0,35.0,74.0,77.0,-22.0,25.0,24.0,29.0,47.0,78.0,2
-81.0,180.0,-80.0,-47.0,-28.0,-20.0,-12.0,-3.0,-4.0,-8.0,-16.0,-24.0,-21.0,-16.0,-6.0,9.0,2
-5.0,-4.0,-16.0,-15.0,-9.0,-6.0,-8.0,-5.0,-3.0,-1.0,3.0,-5.0,-3.0,-2.0,-2.0,-13.0,2
-1.0,-6.0,-1.0,-12.0,-12.0,-7.0,1.0,8.0,-5.0,-4.0,12.0,-3.0,-8.0,-9.0,-3.0,13.0,2
4.0,1.0,5.0,9.0,15.0,19.0,28.0,15.0,0.0,6.0,22.0,12.0,11.0,10.0,8.0,-2.0,2
45.0,23.0,21.0,-6.0,-3.0,10.0,16.0,20.0,6.0,-1.0,-11.0,-9.0,-4.0,-1.0,7.0,23.0,2
45.0,-33.0,21.0,17.0,32.0,37.0,49.0,27.0,9.0,11.0,17.0,17.0,15.0,17.0,23.0,20.0,2
-11.0,119.0,5.0,-17.0,-18.0,-18.0,-13.0,30.0,23.0,19.0,-3.0,-3.0,-6.0,-4.0,9.0,56.0,2
-2.0,-48.0,10.0,-17.0,13.0,30.0,37.0,-54.0,1.0,-1.0,32.0,-5.0,-16.0,-20.0,-16.0,18.0,2
-32.0,-31.0,-40.0,-35.0,-33.0,-33.0,-32.0,-28.0,-29.0,-25.0,-12.0,-23.0,-23.0,-23.0,-22.0,-30.0,2
-30.0,-56.0,-40.0,-11.0,-8.0,-9.0,-8.0,-7.0,-4.0,-4.0,-3.0,-3.0,-4.0,-4.0,-5.0,-3.0,2
13.0,-32.0,-29.0,-23.0,-13.0,-8.0,-4.0,-15.0,-7.0,-12.0,-4.0,-7.0,-8.0,-6.0,-6.0,-20.0,2
-12.0,10.0,-15.0,0.0,1.0,0.0,-1.0,-4.0,4.0,3.0,3.0,3.0,3.0,3.0,1.0,0.0,2
92.0,240.0,92.0,36.0,46.0,64.0,70.0,403.0,31.0,46.0,89.0,25.0,44.0,30.0,35.0,-37.0,2
8.0,-65.0,-20.0,-47.0,-41.0,-31.0,-4.0,17.0,46.0,23.0,47.0,-16.0,-26.0,-15.0,0.0,94.0,2
-33.0,-140.0,-3.0,0.0,18.0,36.0,37.0,-64.0,-9.0,-7.0,29.0,0.0,-3.0,-6.0,-14.0,26.0,2
40.0,-6.0,-49.0,-16.0,0.0,2.0,6.0,14.0,-7.0,-4.0,3.0,-2.0,-2.0,-2.0,4.0,-1.0,2
40.0,-570.0,85.0,-34.0,-56.0,-32.0,-8.0,9.0,7.0,-43.0,125.0,-33.0,-48.0,-44.0,-11.0,135.0,2
13.0,-150.0,-1.0,-17.0,19.0,53.0,86.0,-228.0,-24.0,-27.0,-5.0,-22.0,-30.0,-32.0,-27.0,-4.0,2
8.0,-8.0,1.0,13.0,16.0,13.0,-1.0,22.0,-3.0,0.0,-2.0,12.0,15.0,15.0,6.0,-15.0,2
24.0,16.0,45.0,1.0,-5.0,-10.0,-21.0,-24.0,-56.0,-42.0,-29.0,-12.0,-11.0,-12.0,-19.0,-56.0,2
23.0,40.0,21.0,23.0,25.0,23.0,17.0,12.0,23.0,29.0,27.0,24.0,23.0,22.0,16.0,17.0,2
17.0,179.0,1.0,42.0,30.0,23.0,29.0,-7.0,13.0,29.0,-23.0,27.0,31.0,35.0,23.0,-8.0,2
29.0,-97.0,12.0,14.0,12.0,10.0,11.0,14.0,16.0,18.0,31.0,14.0,10.0,9.0,10.0,15.0,2
7.0,-50.0,3.0,-2.0,-4.0,-4.0,-1.0,-4.0,-6.0,-6.0,3.0,1.0,-2.0,-2.0,-2.0,-3.0,2
119.0,-1033.0,-16.0,15.0,20.0,28.0,32.0,-8.0,-20.0,-28.0,8.0,-2.0,-8.0,-8.0,-7.0,-16.0,2
-14.0,156.0,19.0,-9.0,-15.0,-13.0,-13.0,20.0,11.0,22.0,-28.0,-18.0,-12.0,-5.0,-2.0,16.0,2
23.0,-94.0,15.0,-4.0,-6.0,-7.0,-5.0,-1.0,-4.0,-11.0,-8.0,-4.0,-2.0,-2.0,-1.0,3.0,2
6.0,28.0,20.0,-19.0,-18.0,-4.0,-15.0,-32.0,-10.0,2.0,72.0,2.0,-4.0,-18.0,-21.0,-23.0,2
-25.0,-27.0,-17.0,-18.0,-12.0,-8.0,-7.0,-3.0,0.0,1.0,18.0,-1.0,-6.0,-8.0,-6.0,12.0,2
-27.0,-10.0,26.0,-27.0,-26.0,-12.0,-16.0,-9.0,-1.0,5.0,34.0,-11.0,-18.0,-19.0,-9.0,21.0,2
-52.0,14.0,1.0,-3.0,3.0,0.0,-6.0,3.0,13.0,6.0,-21.0,-1.0,2.0,2.0,1.0,1.0,2
-14.0,-56.0,-23.0,-18.0,-18.0,-19.0,-15.0,-9.0,-6.0,-5.0,-5.0,-10.0,-12.0,-12.0,-12.0,-6.0,2
-47.0,219.0,-23.0,-8.0,-20.0,-15.0,-4.0,45.0,66.0,41.0,33.0,10.0,-6.0,-10.0,8.0,131.0,2
-8.0,255.0,-26.0,39.0,40.0,30.0,24.0,10.0,-8.0,-12.0,-64.0,17.0,23.0,18.0,10.0,-35.0,2
27.0,-346.0,49.0,-52.0,-70.0,-45.0,-19.0,-9.0,68.0,23.0,121.0,-31.0,-41.0,-32.0,-6.0,162.0,2
-17.0,-35.0,-27.0,-29.0,-28.0,-29.0,-18.0,-8.0,-11.0,-16.0,-25.0,-21.0,-20.0,-20.0,-14.0,-7.0,2
-71.0,112.0,-25.0,2.0,1.0,-1.0,-16.0,13.0,39.0,31.0,-10.0,8.0,11.0,8.0,2.0,-5.0,2
-21.0,-190.0,-59.0,-23.0,-18.0,-18.0,-23.0,-55.0,-13.0,-32.0,3.0,-11.0,-15.0,-16.0,-16.0,-14.0,2
-8.0,31.0,6.0,8.0,7.0,7.0,4.0,1.0,0.0,-1.0,-6.0,2.0,5.0,5.0,0.0,-3.0,2
22.0,252.0,-13.0,35.0,38.0,34.0,32.0,37.0,51.0,53.0,-11.0,34.0,42.0,35.0,35.0,32.0,2
-23.0,4.0,-8.0,7.0,7.0,6.0,4.0,1.0,9.0,3.0,-18.0,-4.0,1.0,4.0,5.0,6.0,2
4.0,-110.0,-19.0,-40.0,-47.0,-28.0,-8.0,8.0,-16.0,-14.0,46.0,-15.0,-30.0,-28.0,-9.0,17.0,2
12.0,20.0,3.0,22.0,21.0,18.0,17.0,19.0,9.0,11.0,19.0,17.0,14.0,12.0,9.0,8.0,2
30.0,149.0,12.0,43.0,50.0,44.0,37.0,10.0,-7.0,7.0,-29.0,34.0,43.0,39.0,20.0,-45.0,2
-60.0,123.0,-18.0,2.0,17.0,17.0,15.0,4.0,6.0,8.0,1.0,5.0,8.0,10.0,8.0,9.0,2
-42.0,-204.0,-29.0,-41.0,-9.0,20.0,49.0,-244.0,-90.0,-60.0,-19.0,-35.0,-43.0,-48.0,-48.0,-57.0,2
-23.0,-25.0,-8.0,-56.0,-42.0,-24.0,-26.0,-65.0,6.0,6.0,66.0,-8.0,-21.0,-23.0,-12.0,31.0,2
12.0,25.0,3.0,13.0,8.0,6.0,9.0,10.0,3.0,5.0,9.0,5.0,4.0,3.0,1.0,-4.0,2
-28.0,155.0,46.0,-92.0,-22.0,1.0,-47.0,-95.0,-108.0,-94.0,81.0,-35.0,-27.0,-37.0,-41.0,-128.0,2
-7.0,-88.0,-39.0,-4.0,9.0,12.0,12.0,8.0,-17.0,-24.0,8.0,4.0,3.0,4.0,2.0,-6.0,2
-93.0,360.0,4.0,-90.0,-95.0,-87.0,-130.0,-236.0,-50.0,-12.0,81.0,-45.0,-57.0,-70.0,-61.0,-31.0,2
-2.0,-28.0,7.0,-15.0,-15.0,-15.0,-19.0,-18.0,-1.0,-11.0,6.0,-8.0,-13.0,-11.0,-9.0,4.0,2
29.0,180.0,38.0,-29.0,-33.0,-13.0,-19.0,-68.0,-51.0,-33.0,84.0,-6.0,-13.0,-18.0,-21.0,-39.0,2
34.0,220.0,9.0,22.0,5.0,11.0,20.0,21.0,65.0,71.0,5.0,27.0,27.0,35.0,32.0,55.0,2
-15.0,-5.0,-14.0,-16.0,-15.0,-12.0,-15.0,-19.0,-9.0,-9.0,-14.0,-9.0,-8.0,-7.0,-7.0,-9.0,2
14.0,-66.0,-16.0,2.0,8.0,10.0,21.0,23.0,7.0,4.0,23.0,8.0,3.0,3.0,5.0,5.0,2
-60.0,53.0,-50.0,-66.0,-63.0,-41.0,-27.0,-12.0,-26.0,-18.0,120.0,-9.0,-40.0,-49.0,-21.0,34.0,2
