0,1,2,3,4,5,6,7,8,9,10,11,12,13,14,15,16
23.0,19.0,21.0,21.0,17.0,-1.0,-20.0,-33.0,18.0,17.0,14.0,15.0,16.0,21.0,32.0,4.0,3
122.0,131.0,100.0,89.0,34.0,25.0,34.0,-6.0,-47.0,-65.0,79.0,84.0,92.0,69.0,-47.0,-470.0,3
16.0,62.0,44.0,61.0,101.0,208.0,313.0,228.0,94.0,89.0,56.0,50.0,57.0,59.0,51.0,34.0,3
23.0,21.0,20.0,21.0,21.0,14.0,13.0,14.0,27.0,24.0,15.0,14.0,13.0,12.0,10.0,23.0,3
28.0,63.0,40.0,42.0,31.0,9.0,142.0,151.0,-57.0,-81.0,19.0,17.0,7.0,-7.0,-74.0,-140.0,3
45.0,62.0,59.0,67.0,66.0,69.0,114.0,75.0,11.0,11.0,35.0,38.0,38.0,29.0,-10.0,-46.0,3
-14.0,-9.0,-6.0,-5.0,-8.0,-27.0,-42.0,-31.0,4.0,3.0,-2.0,0.0,5.0,1.0,0.0,53.0,3
-75.0,-54.0,-52.0,-46.0,-40.0,-28.0,39.0,24.0,-35.0,-40.0,-31.0,-30.0,-22.0,-10.0,21.0,-15.0,3
-155.0,-67.0,-44.0,-18.0,69.0,192.0,362.0,362.0,-9.0,-9.0,-4.0,-3.0,-2.0,0.0,9.0,2.0,3
-13.0,-15.0,-7.0,0.0,3.0,-2.0,-15.0,-21.0,-16.0,-14.0,-7.0,-5.0,-7.0,-12.0,-3.0,7.0,3
10.0,4.0,0.0,-4.0,-4.0,-37.0,46.0,72.0,-11.0,-9.0,-5.0,-6.0,-5.0,-7.0,38.0,-2.0,3
-49.0,12.0,-15.0,-4.0,9.0,32.0,248.0,157.0,-59.0,-76.0,-13.0,-24.0,-29.0,-50.0,-103.0,-117.0,3
-158.0,-56.0,-26.0,6.0,99.0,223.0,381.0,362.0,17.0,16.0,19.0,19.0,17.0,22.0,31.0,14.0,3
66.0,101.0,78.0,83.0,72.0,116.0,118.0,0.0,-11.0,-35.0,62.0,64.0,71.0,52.0,8.0,-199.0,3
20.0,23.0,25.0,28.0,27.0,16.0,-4.0,-1.0,14.0,17.0,22.0,25.0,24.0,21.0,31.0,1.0,3
25.0,13.0,6.0,2.0,1.0,-3.0,14.0,25.0,-5.0,0.0,4.0,5.0,7.0,13.0,27.0,-14.0,3
28.0,21.0,22.0,24.0,30.0,35.0,37.0,30.0,21.0,19.0,15.0,19.0,21.0,23.0,11.0,3.0,3
-23.0,-18.0,-17.0,-15.0,-13.0,-12.0,22.0,29.0,-9.0,-12.0,-11.0,-11.0,-10.0,-15.0,-7.0,64.0,3
-87.0,-35.0,-43.0,-36.0,-18.0,32.0,217.0,252.0,-14.0,-25.0,-13.0,-17.0,-17.0,-13.0,-4.0,-77.0,3
10.0,6.0,2.0,-4.0,-15.0,-41.0,-24.0,-10.0,-5.0,-1.0,-7.0,-10.0,-13.0,-27.0,-79.0,-43.0,3
22.0,11.0,2.0,0.0,0.0,-5.0,17.0,27.0,-11.0,-5.0,1.0,1.0,5.0,10.0,19.0,-26.0,3
16.0,10.0,5.0,2.0,7.0,28.0,18.0,9.0,13.0,7.0,0.0,-5.0,-12.0,-36.0,-28.0,17.0,3
-65.0,-19.0,-35.0,-30.0,-25.0,22.0,100.0,64.0,-49.0,-62.0,-23.0,-25.0,-25.0,-45.0,-89.0,-142.0,3
18.0,16.0,18.0,20.0,18.0,3.0,-11.0,7.0,6.0,10.0,9.0,9.0,9.0,8.0,-29.0,-5.0,3
39.0,33.0,32.0,29.0,22.0,24.0,51.0,49.0,27.0,29.0,23.0,26.0,29.0,28.0,19.0,25.0,3
-11.0,-4.0,-15.0,-13.0,-25.0,-23.0,-1.0,-18.0,22.0,29.0,-1.0,-6.0,-6.0,-29.0,-78.0,-15.0,3
3.0,-19.0,-27.0,-37.0,-118.0,-257.0,-264.0,-194.0,3.0,3.0,-32.0,-25.0,-24.0,-31.0,2.0,97.0,3
3.0,9.0,4.0,12.0,3.0,39.0,12.0,-9.0,20.0,15.0,9.0,8.0,12.0,23.0,26.0,7.0,3
21.0,10.0,3.0,-4.0,-7.0,-12.0,3.0,31.0,10.0,8.0,3.0,3.0,3.0,3.0,3.0,-4.0,3
-30.0,-8.0,2.0,5.0,5.0,-40.0,95.0,108.0,-15.0,-20.0,8.0,3.0,5.0,-1.0,-24.0,-91.0,3
-55.0,-37.0,-56.0,-60.0,-60.0,-70.0,62.0,68.0,-56.0,-64.0,-34.0,-50.0,-54.0,-39.0,-7.0,9.0,3
-32.0,9.0,5.0,12.0,55.0,105.0,269.0,332.0,27.0,49.0,17.0,15.0,4.0,-2.0,-43.0,-7.0,3
16.0,28.0,25.0,25.0,26.0,55.0,110.0,133.0,29.0,27.0,28.0,29.0,32.0,41.0,19.0,-23.0,3
23.0,22.0,2.0,5.0,-45.0,-136.0,-306.0,-407.0,-32.0,-35.0,-6.0,-1.0,5.0,-14.0,-74.0,-362.0,3
31.0,23.0,22.0,21.0,20.0,17.0,34.0,55.0,29.0,25.0,17.0,15.0,13.0,12.0,15.0,12.0,3
80.0,40.0,24.0,6.0,-25.0,-76.0,-168.0,-182.0,20.0,16.0,8.0,6.0,11.0,23.0,-10.0,17.0,3
44.0,33.0,27.0,21.0,16.0,10.0,36.0,62.0,23.0,20.0,14.0,11.0,8.0,-2.0,-39.0,12.0,3
-7.0,-8.0,-7.0,-8.0,-10.0,-2.0,23.0,27.0,-87.0,-126.0,-22.0,-16.0,-14.0,-18.0,-38.0,-54.0,3
41.0,75.0,42.0,45.0,25.0,68.0,53.0,-64.0,-82.0,-111.0,31.0,36.0,43.0,4.0,-74.0,-307.0,3
44.0,-24.0,14.0,-19.0,21.0,134.0,-11.0,235.0,39.0,54.0,5.0,3.0,0.0,-5.0,6.0,119.0,3
-24.0,-18.0,-13.0,-10.0,-12.0,-36.0,-68.0,-115.0,-4.0,-1.0,-6.0,-6.0,-3.0,-7.0,38.0,29.0,3
-44.0,1.0,-12.0,5.0,17.0,53.0,110.0,41.0,23.0,23.0,24.0,25.0,38.0,95.0,168.0,142.0,3
16.0,21.0,18.0,17.0,9.0,14.0,45.0,49.0,20.0,14.0,27.0,23.0,23.0,25.0,34.0,70.0,3
-3.0,-12.0,-17.0,-28.0,-44.0,-103.0,-33.0,28.0,-37.0,-31.0,-25.0,-33.0,-45.0,-63.0,-114.0,-99.0,3
20.0,-7.0,-12.0,-17.0,-32.0,-66.0,-112.0,-96.0,-31.0,-27.0,-21.0,-21.0,-22.0,-22.0,-33.0,-66.0,3
-4.0,-5.0,-3.0,2.0,12.0,33.0,-15.0,-8.0,8.0,7.0,-1.0,-3.0,-2.0,0.0,13.0,1.0,3
-32.0,-10.0,-12.0,-4.0,7.0,52.0,161.0,170.0,-31.0,-29.0,-15.0,-11.0,-10.0,-20.0,-75.0,-77.0,3
3.0,2.0,4.0,5.0,3.0,0.0,13.0,4.0,-5.0,0.0,3.0,3.0,0.0,-12.0,-46.0,-29.0,3
1.0,0.0,1.0,1.0,4.0,17.0,21.0,19.0,21.0,17.0,11.0,15.0,19.0,38.0,59.0,50.0,3
60.0,46.0,40.0,32.0,21.0,13.0,11.0,42.0,29.0,28.0,18.0,14.0,12.0,0.0,-82.0,-66.0,3
-4.0,17.0,-20.0,-38.0,-44.0,-180.0,-27.0,-89.0,60.0,89.0,-4.0,-20.0,-16.0,1.0,40.0,141.0,3
74.0,32.0,7.0,-12.0,-133.0,-377.0,-448.0,-435.0,-28.0,-42.0,-17.0,-10.0,-15.0,-59.0,-45.0,-34.0,3
17.0,14.0,14.0,21.0,20.0,16.0,8.0,31.0,-11.0,-5.0,3.0,3.0,-2.0,-11.0,-54.0,-47.0,3
-14.0,5.0,1.0,14.0,29.0,72.0,29.0,-32.0,10.0,4.0,5.0,6.0,10.0,9.0,1.0,-10.0,3
6.0,0.0,-3.0,-6.0,-4.0,-6.0,8.0,12.0,-12.0,-11.0,-3.0,-4.0,-5.0,-3.0,-23.0,-8.0,3
39.0,16.0,8.0,0.0,-29.0,-66.0,-182.0,-246.0,0.0,-2.0,-6.0,-10.0,-15.0,-22.0,-12.0,17.0,3
-37.0,-8.0,-5.0,6.0,19.0,66.0,122.0,89.0,-5.0,-7.0,0.0,1.0,-2.0,-19.0,-29.0,-37.0,3
2.0,-4.0,-3.0,-3.0,-9.0,-32.0,-3.0,-26.0,4.0,1.0,-3.0,-4.0,-5.0,-16.0,-30.0,-12.0,3
83.0,56.0,46.0,37.0,12.0,-26.0,-111.0,-148.0,19.0,26.0,25.0,24.0,23.0,21.0,49.0,9.0,3
11.0,-4.0,-9.0,-14.0,-37.0,-72.0,-71.0,-81.0,-27.0,-33.0,-10.0,-19.0,-21.0,-35.0,-47.0,-84.0,3
4.0,3.0,2.0,1.0,-12.0,-33.0,-58.0,-46.0,-15.0,-13.0,-5.0,-8.0,-15.0,-31.0,-92.0,-52.0,3
5.0,1.0,-1.0,-1.0,-2.0,1.0,-27.0,-25.0,-12.0,-7.0,-4.0,0.0,2.0,6.0,25.0,2.0,3
78.0,78.0,55.0,54.0,27.0,53.0,-42.0,-101.0,1.0,-23.0,38.0,37.0,40.0,21.0,2.0,-56.0,3
6.0,46.0,21.0,33.0,48.0,71.0,281.0,242.0,2.0,3.0,25.0,24.0,21.0,6.0,-30.0,71.0,3
-33.0,-38.0,-44.0,-42.0,-47.0,-43.0,-18.0,-28.0,-44.0,-39.0,-36.0,-41.0,-46.0,-65.0,-80.0,-66.0,3
3.0,0.0,1.0,4.0,20.0,89.0,-1.0,19.0,18.0,15.0,3.0,4.0,7.0,15.0,35.0,49.0,3
-60.0,-6.0,-30.0,-11.0,-15.0,-14.0,114.0,58.0,-129.0,-160.0,-17.0,-15.0,-10.0,-12.0,-77.0,-160.0,3
-20.0,-17.0,-15.0,-6.0,-5.0,-22.0,-34.0,-57.0,-22.0,-21.0,-11.0,-7.0,-4.0,-5.0,20.0,-9.0,3
73.0,39.0,27.0,17.0,-13.0,-66.0,-122.0,-158.0,25.0,24.0,18.0,18.0,15.0,-1.0,15.0,40.0,3
135.0,77.0,23.0,6.0,-88.0,-221.0,-350.0,-404.0,39.0,50.0,-8.0,-13.0,-18.0,-15.0,-64.0,88.0,3
-57.0,-29.0,-39.0,-33.0,-45.0,-58.0,2.0,-39.0,-57.0,-71.0,-26.0,-29.0,-28.0,-38.0,-130.0,-138.0,3
4.0,23.0,15.0,22.0,26.0,38.0,72.0,22.0,-5.0,-7.0,8.0,12.0,14.0,12.0,17.0,-23.0,3
11.0,-3.0,-11.0,-17.0,-56.0,-220.0,-152.0,-166.0,48.0,61.0,-4.0,-5.0,-6.0,0.0,28.0,124.0,3
-11.0,-14.0,-17.0,-15.0,-19.0,-14.0,-4.0,-10.0,-18.0,-16.0,-13.0,-18.0,-21.0,-31.0,-44.0,-5.0,3
22.0,20.0,21.0,21.0,21.0,8.0,4.0,18.0,10.0,8.0,13.0,13.0,8.0,-2.0,-51.0,-20.0,3
82.0,48.0,39.0,32.0,5.0,-27.0,-77.0,-101.0,22.0,25.0,25.0,26.0,29.0,35.0,14.0,8.0,3
-33.0,37.0,22.0,32.0,65.0,66.0,312.0,319.0,16.0,48.0,11.0,3.0,-6.0,-14.0,-109.0,-98.0,3
51.0,10.0,0.0,-14.0,-44.0,-100.0,-201.0,-229.0,-21.0,-18.0,-14.0,-13.0,-13.0,-6.0,-10.0,-2.0,3
130.0,94.0,45.0,35.0,-37.0,-150.0,-150.0,-156.0,64.0,76.0,31.0,32.0,34.0,55.0,49.0,94.0,3
31.0,20.0,14.0,11.0,0.0,-40.0,-65.0,-88.0,27.0,20.0,11.0,11.0,10.0,12.0,31.0,27.0,3
12.0,40.0,31.0,42.0,50.0,47.0,122.0,64.0,-97.0,-150.0,4.0,11.0,14.0,2.0,2.0,-58.0,3
57.0,51.0,52.0,50.0,41.0,49.0,82.0,85.0,58.0,56.0,46.0,43.0,41.0,43.0,70.0,60.0,3
-37.0,-33.0,-29.0,-29.0,-34.0,-48.0,-56.0,-62.0,-25.0,-24.0,-20.0,-20.0,-19.0,-12.0,-24.0,-18.0,3
12.0,12.0,16.0,21.0,27.0,33.0,36.0,34.0,19.0,19.0,16.0,21.0,25.0,27.0,28.0,32.0,3
-50.0,-22.0,-17.0,-7.0,14.0,48.0,65.0,21.0,8.0,2.0,-6.0,-9.0,-9.0,-13.0,1.0,6.0,3
17.0,17.0,19.0,22.0,29.0,37.0,20.0,-15.0,4.0,8.0,9.0,13.0,11.0,-3.0,-30.0,-45.0,3
-69.0,-62.0,-58.0,-58.0,-56.0,-71.0,-114.0,-128.0,-48.0,-49.0,-44.0,-43.0,-42.0,-35.0,5.0,-10.0,3
3.0,0.0,3.0,1.0,-8.0,-20.0,-46.0,-48.0,-5.0,-3.0,-2.0,-5.0,-5.0,-7.0,-29.0,-24.0,3
-30.0,-25.0,-20.0,-11.0,-9.0,-18.0,-21.0,-14.0,-21.0,-16.0,-10.0,-7.0,-4.0,5.0,3.0,-33.0,3
7.0,9.0,10.0,8.0,3.0,-46.0,29.0,34.0,5.0,2.0,11.0,7.0,10.0,11.0,5.0,-23.0,3
-61.0,-16.0,-34.0,-29.0,-12.0,44.0,343.0,342.0,53.0,62.0,-5.0,-17.0,-12.0,12.0,-20.0,82.0,3
11.0,4.0,-3.0,-6.0,-9.0,-26.0,-23.0,4.0,4.0,4.0,0.0,0.0,0.0,19.0,-3.0,12.0,3
-66.0,-18.0,-41.0,-28.0,-33.0,-28.0,103.0,51.0,-153.0,-184.0,-36.0,-35.0,-32.0,-37.0,-94.0,-167.0,3
50.0,13.0,2.0,-10.0,-38.0,-79.0,-167.0,-210.0,-12.0,-12.0,-10.0,-10.0,-9.0,-14.0,-8.0,-11.0,3
26.0,21.0,21.0,20.0,23.0,37.0,26.0,22.0,8.0,6.0,6.0,3.0,-4.0,-22.0,-20.0,-31.0,3
-47.0,-18.0,10.0,29.0,122.0,288.0,372.0,453.0,58.0,78.0,32.0,29.0,33.0,38.0,94.0,188.0,3
-7.0,-12.0,-11.0,-11.0,-19.0,-28.0,-34.0,-27.0,-14.0,-13.0,-11.0,-15.0,-14.0,-11.0,-8.0,-4.0,3
-21.0,23.0,2.0,20.0,37.0,29.0,193.0,160.0,138.0,159.0,23.0,19.0,25.0,73.0,226.0,535.0,3
13.0,-6.0,-12.0,-26.0,-95.0,-215.0,-219.0,-152.0,25.0,24.0,-27.0,-24.0,-18.0,-20.0,12.0,106.0,3
18.0,75.0,49.0,62.0,89.0,145.0,253.0,224.0,9.0,0.0,38.0,42.0,45.0,57.0,104.0,-10.0,3
1.0,12.0,15.0,27.0,27.0,35.0,10.0,17.0,9.0,9.0,17.0,19.0,19.0,13.0,-20.0,-11.0,3
-9.0,-11.0,-10.0,-7.0,-4.0,-7.0,-18.0,14.0,-32.0,-35.0,-4.0,-3.0,-2.0,0.0,9.0,4.0,3
8.0,8.0,15.0,28.0,32.0,26.0,8.0,-17.0,28.0,21.0,16.0,19.0,21.0,19.0,15.0,34.0,3
23.0,21.0,17.0,14.0,9.0,4.0,24.0,46.0,-3.0,5.0,-1.0,-3.0,-6.0,-24.0,-111.0,-101.0,3
-15.0,-14.0,-11.0,-9.0,-7.0,-2.0,-5.0,-10.0,-12.0,-10.0,-7.0,-5.0,-5.0,-4.0,0.0,1.0,3
7.0,2.0,8.0,10.0,6.0,-6.0,-38.0,-42.0,11.0,9.0,7.0,9.0,14.0,29.0,71.0,27.0,3
4.0,21.0,17.0,18.0,10.0,16.0,45.0,39.0,0.0,-2.0,16.0,13.0,15.0,17.0,17.0,-43.0,3
23.0,15.0,13.0,15.0,17.0,4.0,-3.0,5.0,23.0,20.0,14.0,18.0,18.0,10.0,12.0,27.0,3
-58.0,-22.0,-44.0,-45.0,-52.0,-160.0,-53.0,-152.0,-7.0,-15.0,-34.0,-39.0,-39.0,-18.0,147.0,480.0,3
-30.0,-6.0,-36.0,-31.0,-43.0,-59.0,77.0,84.0,-41.0,-43.0,-23.0,-29.0,-29.0,-31.0,-12.0,-66.0,3
39.0,31.0,29.0,29.0,26.0,11.0,-24.0,-39.0,16.0,16.0,15.0,17.0,18.0,18.0,36.0,39.0,3
28.0,23.0,1.0,0.0,-36.0,-133.0,-175.0,-212.0,53.0,52.0,-1.0,-1.0,2.0,9.0,37.0,140.0,3
22.0,21.0,20.0,21.0,22.0,16.0,24.0,28.0,19.0,20.0,17.0,18.0,13.0,7.0,-23.0,-17.0,3
-16.0,-20.0,-20.0,-20.0,-19.0,-20.0,-19.0,-19.0,-12.0,-10.0,-9.0,-8.0,-9.0,-2.0,-1.0,-11.0,3
-23.0,-28.0,-28.0,-32.0,-28.0,-21.0,23.0,40.0,-9.0,-11.0,-13.0,-13.0,-11.0,-9.0,-5.0,13.0,3
115.0,80.0,64.0,48.0,-1.0,-31.0,-83.0,-119.0,58.0,54.0,31.0,33.0,45.0,55.0,58.0,66.0,3
59.0,32.0,27.0,19.0,-7.0,-49.0,-106.0,-133.0,-1.0,5.0,6.0,5.0,4.0,-6.0,-35.0,14.0,3
-14.0,-10.0,-11.0,-11.0,-9.0,4.0,-3.0,-15.0,-7.0,-10.0,-6.0,-7.0,-5.0,-2.0,-4.0,-12.0,3
28.0,32.0,25.0,20.0,8.0,-21.0,-78.0,-110.0,6.0,7.0,6.0,2.0,2.0,0.0,41.0,27.0,3
-5.0,0.0,1.0,0.0,5.0,15.0,30.0,28.0,17.0,14.0,5.0,-1.0,-6.0,-13.0,-16.0,14.0,3
35.0,55.0,25.0,25.0,13.0,32.0,89.0,68.0,-62.0,-92.0,8.0,19.0,26.0,2.0,-28.0,-156.0,3
0.0,-6.0,-9.0,-14.0,-24.0,-35.0,-37.0,-19.0,-6.0,-8.0,-10.0,-14.0,-19.0,-28.0,-53.0,5.0,3
3.0,10.0,21.0,26.0,30.0,21.0,14.0,1.0,29.0,25.0,18.0,19.0,19.0,17.0,26.0,27.0,3
87.0,51.0,41.0,25.0,2.0,-56.0,-111.0,-124.0,23.0,21.0,13.0,14.0,12.0,8.0,2.0,4.0,3
-118.0,-51.0,-45.0,-22.0,64.0,141.0,488.0,494.0,195.0,241.0,0.0,-5.0,-8.0,27.0,164.0,365.0,3
41.0,30.0,32.0,13.0,28.0,-61.0,116.0,175.0,202.0,252.0,51.0,38.0,40.0,57.0,92.0,117.0,3
52.0,21.0,10.0,-2.0,-17.0,-54.0,-104.0,-110.0,-1.0,-4.0,-3.0,-5.0,-11.0,-20.0,-8.0,-7.0,3
-75.0,-28.0,-19.0,2.0,46.0,112.0,169.0,106.0,3.0,1.0,2.0,4.0,7.0,19.0,30.0,8.0,3
35.0,45.0,36.0,38.0,22.0,29.0,80.0,54.0,75.0,75.0,42.0,39.0,44.0,68.0,119.0,49.0,3
-40.0,-24.0,-31.0,-29.0,-25.0,10.0,57.0,29.0,-6.0,-13.0,-8.0,-12.0,-11.0,-16.0,4.0,-20.0,3
3.0,-2.0,0.0,-4.0,-14.0,-23.0,-14.0,13.0,-11.0,-8.0,-6.0,-5.0,-3.0,-3.0,-54.0,-50.0,3
-32.0,7.0,17.0,35.0,78.0,173.0,357.0,403.0,127.0,143.0,27.0,19.0,11.0,12.0,17.0,332.0,3
28.0,24.0,20.0,25.0,25.0,13.0,24.0,55.0,20.0,19.0,18.0,19.0,21.0,19.0,4.0,8.0,3
-61.0,-30.0,-37.0,-30.0,-14.0,-20.0,102.0,88.0,-90.0,-82.0,-37.0,-31.0,-27.0,-12.0,3.0,21.0,3
213.0,137.0,78.0,63.0,-4.0,-89.0,-429.0,-668.0,129.0,146.0,47.0,41.0,30.0,31.0,54.0,274.0,3
60.0,83.0,43.0,40.0,11.0,-10.0,-12.0,-92.0,-32.0,-60.0,21.0,32.0,36.0,15.0,-8.0,-114.0,3
-23.0,-22.0,-20.0,-16.0,-21.0,-39.0,-71.0,-116.0,0.0,-5.0,-11.0,-10.0,-4.0,4.0,63.0,41.0,3
-60.0,-17.0,-25.0,-18.0,-6.0,28.0,130.0,144.0,-52.0,-54.0,-24.0,-24.0,-24.0,-27.0,-45.0,-90.0,3
44.0,15.0,4.0,-2.0,-27.0,-85.0,-145.0,-139.0,1.0,-2.0,-13.0,-10.0,0.0,25.0,38.0,8.0,3
75.0,93.0,59.0,60.0,43.0,54.0,132.0,129.0,-69.0,-96.0,34.0,41.0,48.0,13.0,-55.0,-291.0,3
-7.0,-7.0,-5.0,-3.0,-3.0,-5.0,-28.0,-35.0,-7.0,-6.0,-6.0,-5.0,-3.0,5.0,13.0,2.0,3
102.0,118.0,94.0,96.0,77.0,110.0,151.0,109.0,-47.0,-54.0,83.0,78.0,87.0,71.0,-51.0,-539.0,3
131.0,95.0,73.0,64.0,26.0,-3.0,-99.0,-134.0,41.0,43.0,42.0,46.0,51.0,59.0,123.0,57.0,3
12.0,16.0,8.0,4.0,-4.0,-15.0,7.0,-18.0,-18.0,-30.0,-1.0,1.0,0.0,3.0,2.0,-41.0,3
30.0,20.0,17.0,22.0,25.0,29.0,17.0,1.0,11.0,12.0,9.0,10.0,10.0,9.0,18.0,29.0,3
6.0,-1.0,-7.0,-11.0,-17.0,-39.0,-17.0,29.0,-30.0,-20.0,-12.0,-15.0,-20.0,-35.0,-79.0,-88.0,3
-17.0,-20.0,-22.0,-24.0,-27.0,-33.0,-29.0,-5.0,-29.0,-37.0,-18.0,-18.0,-17.0,-19.0,-27.0,-10.0,3
-4.0,1.0,-10.0,-12.0,-24.0,-3.0,45.0,17.0,29.0,32.0,6.0,3.0,10.0,23.0,41.0,13.0,3
-54.0,-51.0,-9.0,-8.0,84.0,264.0,318.0,481.0,57.0,68.0,-3.0,1.0,-8.0,-6.0,18.0,161.0,3
-42.0,-9.0,-5.0,13.0,39.0,66.0,36.0,11.0,-2.0,-2.0,11.0,14.0,19.0,29.0,59.0,7.0,3
63.0,80.0,46.0,51.0,11.0,-25.0,-54.0,-139.0,6.0,-26.0,18.0,25.0,29.0,5.0,-27.0,-110.0,3
-21.0,-21.0,-22.0,-23.0,-14.0,0.0,-1.0,-22.0,-25.0,-20.0,-16.0,-17.0,-19.0,-14.0,-3.0,-29.0,3
66.0,56.0,26.0,18.0,-21.0,-97.0,-116.0,-180.0,46.0,38.0,6.0,13.0,18.0,29.0,66.0,170.0,3
-2.0,2.0,5.0,3.0,1.0,-5.0,-23.0,-25.0,-12.0,-4.0,-5.0,-8.0,-10.0,-16.0,-53.0,-35.0,3
-54.0,9.0,-11.0,6.0,17.0,33.0,229.0,191.0,-89.0,-109.0,-10.0,-10.0,-10.0,-24.0,-69.0,-77.0,3
-31.0,-16.0,-10.0,-12.0,-25.0,-47.0,348.0,736.0,-15.0,-23.0,3.0,-1.0,2.0,-3.0,-26.0,-89.0,3
-56.0,-6.0,0.0,21.0,64.0,145.0,353.0,392.0,122.0,135.0,20.0,16.0,21.0,69.0,165.0,390.0,3
-2.0,-8.0,-6.0,-8.0,-6.0,-6.0,-1.0,7.0,8.0,6.0,-8.0,-7.0,-6.0,8.0,-9.0,-14.0,3
25.0,31.0,27.0,27.0,23.0,44.0,56.0,27.0,36.0,29.0,27.0,27.0,32.0,38.0,78.0,76.0,3
-39.0,-29.0,-29.0,-25.0,-25.0,-50.0,-56.0,-15.0,-37.0,-41.0,-22.0,-22.0,-24.0,-25.0,-36.0,-68.0,3
21.0,20.0,21.0,22.0,15.0,16.0,38.0,33.0,9.0,13.0,7.0,2.0,13.0,13.0,38.0,25.0,3
6.0,9.0,12.0,13.0,6.0,-6.0,-33.0,-44.0,0.0,5.0,5.0,0.0,2.0,8.0,21.0,-3.0,3
-23.0,-29.0,-29.0,-33.0,-44.0,-49.0,-33.0,-42.0,-35.0,-30.0,-29.0,-31.0,-39.0,-59.0,-55.0,-33.0,3
21.0,13.0,13.0,12.0,9.0,15.0,60.0,72.0,16.0,15.0,12.0,11.0,11.0,-3.0,-61.0,-31.0,3
-7.0,-2.0,3.0,5.0,5.0,1.0,-7.0,-11.0,-1.0,1.0,6.0,4.0,3.0,4.0,-4.0,-10.0,3
71.0,38.0,25.0,15.0,-32.0,-51.0,-99.0,-122.0,20.0,17.0,8.0,5.0,-1.0,-21.0,-117.0,10.0,3
-12.0,-15.0,-11.0,-9.0,-10.0,-2.0,12.0,14.0,-14.0,-11.0,-8.0,-8.0,-8.0,-8.0,-27.0,-17.0,3
39.0,6.0,-9.0,-19.0,-51.0,-99.0,-228.0,-276.0,-30.0,-30.0,-20.0,-20.0,-16.0,-8.0,-17.0,-41.0,3
20.0,20.0,24.0,26.0,36.0,78.0,21.0,13.0,41.0,39.0,27.0,29.0,27.0,21.0,58.0,61.0,3
4.0,7.0,8.0,9.0,5.0,0.0,-15.0,-10.0,3.0,7.0,10.0,17.0,10.0,16.0,39.0,1.0,3
41.0,31.0,27.0,31.0,38.0,58.0,44.0,84.0,3.0,9.0,15.0,21.0,21.0,16.0,5.0,-22.0,3
73.0,92.0,55.0,58.0,32.0,44.0,81.0,35.0,-86.0,-115.0,32.0,38.0,46.0,4.0,-76.0,-295.0,3
46.0,63.0,64.0,67.0,66.0,81.0,58.0,24.0,32.0,32.0,42.0,46.0,48.0,51.0,76.0,-6.0,3
-119.0,-43.0,-26.0,-18.0,29.0,144.0,731.0,1146.0,3.0,-3.0,-1.0,-2.0,-4.0,-6.0,-46.0,2.0,3
-17.0,-11.0,-16.0,-12.0,-14.0,-24.0,-20.0,-14.0,-23.0,-33.0,-11.0,-6.0,-1.0,16.0,21.0,-37.0,3
42.0,33.0,18.0,11.0,-48.0,-160.0,-308.0,-358.0,-7.0,-8.0,8.0,9.0,11.0,-5.0,-31.0,-174.0,3
-30.0,-26.0,-25.0,-24.0,-22.0,-26.0,-16.0,-39.0,-18.0,-20.0,-19.0,-21.0,-25.0,-45.0,-63.0,-47.0,3
-50.0,-16.0,-19.0,-6.0,56.0,207.0,170.0,168.0,31.0,38.0,-6.0,-7.0,-4.0,17.0,52.0,128.0,3
43.0,38.0,30.0,24.0,17.0,11.0,47.0,58.0,38.0,31.0,33.0,33.0,39.0,65.0,54.0,33.0,3
48.0,40.0,39.0,34.0,28.0,23.0,14.0,23.0,10.0,14.0,16.0,15.0,8.0,-15.0,-83.0,-79.0,3
-28.0,-25.0,-23.0,-20.0,-16.0,-13.0,-21.0,-23.0,-10.0,-10.0,-12.0,-13.0,-14.0,-20.0,-33.0,-5.0,3
-34.0,-33.0,-34.0,-33.0,-37.0,-54.0,-60.0,-53.0,-26.0,-27.0,-22.0,-22.0,-18.0,-4.0,-14.0,-27.0,3
-39.0,-24.0,-20.0,-18.0,-27.0,-28.0,-55.0,-66.0,-41.0,-36.0,-17.0,-22.0,-26.0,-49.0,-162.0,-114.0,3
-35.0,-37.0,-41.0,-43.0,-57.0,-39.0,-86.0,-92.0,-15.0,-15.0,-22.0,-22.0,-13.0,9.0,-5.0,-2.0,3
-43.0,-38.0,-39.0,-39.0,-39.0,-40.0,-31.0,-116.0,-48.0,-50.0,-33.0,-39.0,-43.0,-74.0,-79.0,-39.0,3
13.0,8.0,9.0,4.0,3.0,2.0,6.0,21.0,21.0,16.0,11.0,9.0,9.0,5.0,-19.0,5.0,3
-26.0,36.0,11.0,34.0,64.0,108.0,291.0,273.0,-43.0,-42.0,7.0,13.0,11.0,3.0,-98.0,-186.0,3
28.0,43.0,25.0,26.0,21.0,21.0,40.0,20.0,-22.0,-43.0,9.0,17.0,19.0,8.0,16.0,-6.0,3
-14.0,-22.0,-23.0,-26.0,-33.0,-54.0,-53.0,-58.0,-41.0,-41.0,-37.0,-33.0,-28.0,-16.0,-21.0,-31.0,3
28.0,70.0,41.0,50.0,45.0,138.0,201.0,90.0,-103.0,-125.0,39.0,44.0,52.0,17.0,-97.0,-507.0,3
37.0,32.0,29.0,24.0,19.0,-17.0,43.0,40.0,9.0,8.0,11.0,8.0,-3.0,-33.0,-78.0,-59.0,3
14.0,8.0,10.0,10.0,11.0,13.0,8.0,-20.0,0.0,5.0,3.0,7.0,6.0,4.0,38.0,5.0,3
0.0,-5.0,-7.0,-7.0,-10.0,-5.0,-4.0,-7.0,-6.0,-4.0,-5.0,-7.0,-9.0,-10.0,-24.0,-37.0,3
-44.0,-34.0,-24.0,-20.0,-20.0,-36.0,-7.0,8.0,-50.0,-41.0,-27.0,-30.0,-31.0,-59.0,-160.0,-96.0,3
-82.0,-70.0,-60.0,-51.0,-49.0,-69.0,-58.0,-101.0,-43.0,-47.0,-46.0,-43.0,-35.0,-37.0,-26.0,-1.0,3
-61.0,-11.0,-19.0,-1.0,30.0,81.0,337.0,349.0,46.0,60.0,3.0,-6.0,-13.0,-10.0,-37.0,103.0,3
35.0,31.0,21.0,21.0,9.0,12.0,-62.0,-140.0,6.0,3.0,6.0,4.0,-3.0,-32.0,-67.0,-39.0,3
3.0,-3.0,-3.0,-2.0,-2.0,5.0,-32.0,-45.0,7.0,0.0,-7.0,-7.0,-10.0,-17.0,-37.0,-7.0,3
-56.0,-23.0,-22.0,-12.0,-4.0,8.0,50.0,0.0,0.0,-6.0,1.0,0.0,6.0,13.0,59.0,3.0,3
69.0,60.0,57.0,55.0,49.0,28.0,25.0,62.0,33.0,39.0,41.0,42.0,34.0,2.0,-3.0,21.0,3
-3.0,25.0,26.0,36.0,45.0,72.0,117.0,108.0,11.0,9.0,20.0,21.0,18.0,-1.0,-36.0,-29.0,3
38.0,60.0,30.0,29.0,14.0,35.0,93.0,75.0,-71.0,-100.0,10.0,21.0,26.0,-4.0,-50.0,-206.0,3
26.0,17.0,15.0,7.0,8.0,-8.0,-9.0,10.0,11.0,12.0,9.0,7.0,1.0,-9.0,-35.0,-25.0,3
15.0,15.0,15.0,12.0,10.0,6.0,-19.0,-15.0,10.0,11.0,8.0,10.0,11.0,17.0,22.0,6.0,3
11.0,9.0,10.0,8.0,2.0,1.0,3.0,10.0,5.0,6.0,8.0,6.0,4.0,1.0,-30.0,-28.0,3
39.0,72.0,62.0,70.0,60.0,46.0,101.0,69.0,-6.0,-24.0,37.0,36.0,31.0,-3.0,-108.0,-105.0,3
-7.0,6.0,1.0,2.0,-12.0,-22.0,17.0,-5.0,-26.0,-45.0,-7.0,-2.0,2.0,-15.0,-37.0,-68.0,3
37.0,50.0,44.0,53.0,35.0,7.0,58.0,53.0,-17.0,-43.0,27.0,28.0,25.0,2.0,26.0,-47.0,3
17.0,8.0,7.0,0.0,-7.0,-16.0,-23.0,0.0,9.0,6.0,2.0,1.0,-1.0,3.0,27.0,17.0,3
-5.0,2.0,9.0,12.0,15.0,17.0,26.0,5.0,26.0,21.0,17.0,21.0,25.0,34.0,79.0,75.0,3
-3.0,1.0,-3.0,-5.0,-5.0,-5.0,1.0,2.0,15.0,12.0,11.0,9.0,10.0,27.0,87.0,39.0,3
29.0,16.0,10.0,4.0,-10.0,-44.0,-36.0,4.0,11.0,6.0,4.0,1.0,-1.0,-1.0,-27.0,-29.0,3
-27.0,-9.0,-1.0,-2.0,-5.0,-50.0,86.0,98.0,-13.0,-20.0,6.0,0.0,2.0,-6.0,-30.0,-97.0,3
25.0,71.0,51.0,64.0,80.0,124.0,-26.0,-383.0,170.0,179.0,52.0,50.0,50.0,98.0,256.0,415.0,3
-81.0,-61.0,-66.0,-68.0,-25.0,87.0,-20.0,62.0,-38.0,-19.0,-56.0,-64.0,-76.0,-102.0,-221.0,-69.0,3
9.0,29.0,23.0,34.0,52.0,110.0,178.0,119.0,-66.0,-109.0,15.0,10.0,19.0,14.0,-20.0,-143.0,3
68.0,23.0,12.0,-13.0,-103.0,-285.0,-427.0,-405.0,-2.0,-2.0,-10.0,-6.0,-7.0,-29.0,-23.0,-47.0,3
47.0,59.0,50.0,48.0,30.0,-7.0,21.0,10.0,-9.0,-37.0,34.0,35.0,39.0,42.0,31.0,-50.0,3
-14.0,-7.0,0.0,12.0,18.0,24.0,20.0,-11.0,5.0,3.0,3.0,6.0,10.0,17.0,24.0,40.0,3
16.0,9.0,9.0,8.0,12.0,-12.0,18.0,41.0,5.0,2.0,7.0,8.0,4.0,5.0,14.0,5.0,3
-11.0,-11.0,-7.0,-12.0,-19.0,-66.0,22.0,31.0,-11.0,-11.0,-8.0,-11.0,-15.0,-35.0,-54.0,-41.0,3
63.0,58.0,33.0,31.0,-3.0,-93.0,-140.0,-186.0,70.0,69.0,16.0,20.0,27.0,34.0,60.0,149.0,3
-86.0,-61.0,-34.0,-31.0,52.0,172.0,259.0,349.0,45.0,59.0,-4.0,-10.0,-17.0,-5.0,33.0,129.0,3
-89.0,-20.0,-29.0,-7.0,59.0,106.0,413.0,377.0,147.0,186.0,20.0,10.0,10.0,44.0,114.0,224.0,3
24.0,2.0,-17.0,-40.0,-129.0,-297.0,-471.0,-527.0,-79.0,-89.0,-22.0,-17.0,-19.0,-68.0,-156.0,-474.0,3
3.0,-12.0,-18.0,-23.0,-40.0,-71.0,-89.0,-97.0,-21.0,-19.0,-17.0,-18.0,-19.0,-15.0,-29.0,-28.0,3
-16.0,-17.0,-17.0,-17.0,-18.0,-19.0,-12.0,0.0,-8.0,-7.0,-8.0,-9.0,-8.0,3.0,2.0,-1.0,3
33.0,29.0,14.0,0.0,-41.0,-130.0,-115.0,-88.0,98.0,105.0,8.0,9.0,10.0,19.0,60.0,174.0,3
87.0,90.0,77.0,66.0,59.0,54.0,112.0,131.0,19.0,-7.0,38.0,43.0,41.0,-10.0,-27.0,-52.0,3
-44.0,-17.0,-17.0,-18.0,-15.0,-8.0,42.0,10.0,-34.0,-40.0,-16.0,-15.0,-18.0,-27.0,8.0,-64.0,3
-6.0,-7.0,-7.0,-6.0,-4.0,-34.0,32.0,32.0,-16.0,-17.0,-11.0,-12.0,-14.0,-29.0,-39.0,-38.0,3
-39.0,-45.0,-48.0,-49.0,-54.0,-62.0,-65.0,-62.0,-33.0,-32.0,-36.0,-37.0,-33.0,-11.0,-6.0,-25.0,3
-90.0,-41.0,-52.0,-43.0,-22.0,41.0,77.0,16.0,-71.0,-81.0,-38.0,-30.0,-20.0,-5.0,38.0,-110.0,3
3.0,10.0,1.0,-7.0,-18.0,16.0,-1.0,-9.0,-22.0,-27.0,-5.0,-5.0,1.0,-25.0,-70.0,-95.0,3
-18.0,-22.0,-25.0,-20.0,-23.0,-20.0,-2.0,-9.0,-33.0,-29.0,-21.0,-24.0,-29.0,-49.0,-73.0,-61.0,3
-26.0,21.0,4.0,21.0,68.0,188.0,324.0,246.0,58.0,50.0,25.0,17.0,23.0,29.0,23.0,18.0,3
-161.0,-65.0,-74.0,-44.0,17.0,77.0,370.0,324.0,-49.0,-41.0,-35.0,-37.0,-37.0,-31.0,-39.0,36.0,3
8.0,-4.0,-12.0,-20.0,-21.0,-23.0,-2.0,27.0,-17.0,-18.0,-16.0,-18.0,-19.0,-13.0,8.0,-23.0,3
12.0,34.0,31.0,35.0,42.0,59.0,118.0,70.0,39.0,26.0,26.0,23.0,20.0,-1.0,18.0,29.0,3
-83.0,-21.0,-46.0,-30.0,-22.0,0.0,192.0,157.0,-83.0,-111.0,-18.0,-23.0,-22.0,-28.0,-47.0,-59.0,3
-9.0,13.0,-17.0,-15.0,-29.0,-112.0,15.0,-39.0,-101.0,-121.0,-20.0,-15.0,-5.0,28.0,45.0,19.0,3
-148.0,-29.0,5.0,33.0,130.0,287.0,582.0,647.0,43.0,43.0,39.0,40.0,43.0,44.0,26.0,43.0,3
-73.0,-69.0,-63.0,-60.0,-61.0,-103.0,-79.0,-99.0,-55.0,-54.0,-40.0,-39.0,-32.0,-16.0,-13.0,-45.0,3
-168.0,-74.0,-47.0,-32.0,31.0,165.0,746.0,1134.0,-32.0,-31.0,-13.0,-10.0,-5.0,6.0,28.0,-15.0,3
27.0,20.0,20.0,16.0,4.0,-12.0,-16.0,-14.0,8.0,12.0,11.0,9.0,4.0,-10.0,-29.0,-16.0,3
42.0,24.0,20.0,17.0,-1.0,-23.0,-53.0,-14.0,10.0,11.0,10.0,12.0,5.0,3.0,2.0,-30.0,3
21.0,15.0,16.0,16.0,17.0,32.0,42.0,33.0,5.0,6.0,5.0,5.0,1.0,-22.0,-28.0,-4.0,3
-91.0,-49.0,-60.0,-39.0,-34.0,-17.0,-7.0,-56.0,-72.0,-78.0,-37.0,-38.0,-34.0,-37.0,-62.0,-88.0,3
17.0,2.0,-10.0,-19.0,-28.0,-28.0,17.0,54.0,9.0,1.0,-5.0,-12.0,-12.0,-7.0,-27.0,-35.0,3
-49.0,-23.0,-27.0,-15.0,-23.0,-49.0,-45.0,-105.0,-92.0,-111.0,-29.0,-23.0,-23.0,-41.0,-69.0,-127.0,3
19.0,48.0,15.0,8.0,-7.0,-130.0,1.0,-60.0,-13.0,-9.0,-5.0,-10.0,-16.0,7.0,66.0,309.0,3
82.0,40.0,11.0,-10.0,-136.0,-392.0,-487.0,-487.0,-36.0,-52.0,-12.0,-4.0,-3.0,-26.0,-36.0,-69.0,3
98.0,61.0,47.0,35.0,1.0,-52.0,-114.0,-152.0,14.0,18.0,18.0,17.0,11.0,-6.0,-20.0,-12.0,3
7.0,-12.0,-15.0,-19.0,-35.0,-71.0,-148.0,-160.0,-20.0,-18.0,-17.0,-19.0,-22.0,-33.0,-50.0,-118.0,3
24.0,26.0,25.0,27.0,29.0,4.0,21.0,14.0,28.0,27.0,26.0,29.0,36.0,52.0,85.0,44.0,3
-25.0,-37.0,-38.0,-41.0,-52.0,-52.0,-88.0,-64.0,-33.0,-37.0,-28.0,-28.0,-26.0,-29.0,-8.0,0.0,3
-30.0,47.0,39.0,70.0,108.0,149.0,308.0,173.0,-4.0,-22.0,37.0,41.0,43.0,42.0,5.0,-7.0,3
45.0,47.0,15.0,4.0,-34.0,-132.0,-83.0,-111.0,-75.0,-97.0,-5.0,4.0,9.0,-20.0,-68.0,-256.0,3
23.0,13.0,9.0,5.0,9.0,13.0,36.0,51.0,4.0,4.0,-2.0,1.0,4.0,11.0,15.0,16.0,3
-32.0,-8.0,-39.0,-38.0,-60.0,-79.0,99.0,169.0,-20.0,-16.0,-24.0,-25.0,-19.0,8.0,-2.0,21.0,3
68.0,67.0,56.0,54.0,53.0,35.0,34.0,16.0,38.0,34.0,35.0,38.0,40.0,51.0,61.0,35.0,3
19.0,14.0,12.0,12.0,8.0,3.0,13.0,19.0,-10.0,0.0,8.0,12.0,12.0,21.0,24.0,-27.0,3
-27.0,4.0,5.0,20.0,46.0,85.0,96.0,83.0,6.0,6.0,8.0,8.0,7.0,0.0,-19.0,-27.0,3
29.0,27.0,31.0,34.0,29.0,29.0,-15.0,-37.0,9.0,12.0,13.0,12.0,8.0,-7.0,-27.0,5.0,3
-5.0,-7.0,-6.0,-8.0,-8.0,-1.0,12.0,15.0,-2.0,-3.0,-5.0,-7.0,-13.0,-33.0,-50.0,5.0,3
-30.0,-28.0,-16.0,-23.0,55.0,224.0,168.0,224.0,35.0,43.0,-6.0,-6.0,5.0,44.0,96.0,175.0,3
60.0,85.0,46.0,43.0,12.0,-2.0,-9.0,-95.0,-43.0,-71.0,27.0,35.0,40.0,17.0,-23.0,-193.0,3
28.0,61.0,31.0,42.0,46.0,50.0,205.0,219.0,23.0,25.0,34.0,40.0,49.0,69.0,80.0,23.0,3
-32.0,-31.0,-29.0,-27.0,-16.0,-4.0,-12.0,-36.0,-25.0,-24.0,-20.0,-20.0,-19.0,-16.0,-2.0,-24.0,3
1.0,-4.0,-6.0,-10.0,-12.0,-7.0,28.0,43.0,-126.0,-177.0,-23.0,-10.0,-5.0,-4.0,-12.0,-35.0,3
-10.0,-10.0,-7.0,-7.0,-7.0,-18.0,-32.0,-37.0,-19.0,-15.0,-7.0,-6.0,-9.0,-17.0,-31.0,-43.0,3
74.0,93.0,64.0,70.0,47.0,72.0,110.0,62.0,-84.0,-104.0,56.0,59.0,68.0,35.0,-86.0,-451.0,3
-19.0,-13.0,-15.0,-13.0,0.0,18.0,38.0,16.0,21.0,19.0,1.0,0.0,7.0,17.0,101.0,40.0,3
17.0,25.0,31.0,36.0,46.0,49.0,8.0,-23.0,19.0,17.0,20.0,19.0,17.0,19.0,50.0,37.0,3
-16.0,-2.0,-6.0,0.0,-1.0,-28.0,-58.0,-128.0,-65.0,-80.0,-13.0,-11.0,-7.0,-9.0,-36.0,-117.0,3
-11.0,-12.0,-15.0,-7.0,-31.0,-56.0,-67.0,-35.0,-9.0,-7.0,-9.0,-13.0,-9.0,10.0,14.0,-1.0,3
-148.0,-74.0,-76.0,-57.0,2.0,39.0,355.0,326.0,108.0,149.0,-23.0,-34.0,-37.0,-10.0,39.0,187.0,3
16.0,13.0,9.0,12.0,5.0,26.0,-27.0,-44.0,-7.0,1.0,4.0,5.0,8.0,13.0,-2.0,-6.0,3
27.0,21.0,27.0,25.0,55.0,77.0,84.0,162.0,219.0,277.0,50.0,43.0,41.0,51.0,118.0,171.0,3
37.0,30.0,28.0,25.0,20.0,21.0,29.0,55.0,35.0,31.0,23.0,19.0,16.0,13.0,29.0,26.0,3
29.0,37.0,28.0,29.0,24.0,0.0,-24.0,-24.0,9.0,-12.0,24.0,27.0,31.0,38.0,38.0,1.0,3
0.0,1.0,3.0,7.0,12.0,20.0,20.0,17.0,6.0,6.0,7.0,9.0,10.0,6.0,48.0,32.0,3
-143.0,-64.0,-49.0,-25.0,68.0,180.0,405.0,477.0,187.0,210.0,10.0,1.0,6.0,64.0,262.0,620.0,3
10.0,-20.0,-34.0,-50.0,-78.0,-127.0,-214.0,-252.0,-31.0,-33.0,-34.0,-41.0,-32.0,-22.0,22.0,1.0,3
-42.0,-53.0,-59.0,-64.0,-81.0,-93.0,-91.0,-65.0,-72.0,-69.0,-70.0,-72.0,-75.0,-89.0,-96.0,-111.0,3
16.0,9.0,6.0,1.0,0.0,3.0,32.0,58.0,-1.0,-3.0,-3.0,-7.0,-11.0,-33.0,-67.0,-45.0,3
-23.0,-23.0,-24.0,-22.0,-18.0,-16.0,12.0,14.0,-13.0,-11.0,-10.0,-8.0,-3.0,1.0,30.0,-3.0,3
-36.0,-35.0,-31.0,-29.0,-32.0,-46.0,-44.0,-73.0,-16.0,-18.0,-18.0,-19.0,-16.0,-10.0,43.0,-3.0,3
-63.0,-22.0,-41.0,-43.0,-42.0,1.0,76.0,81.0,-78.0,-85.0,-41.0,-46.0,-49.0,-75.0,-164.0,-182.0,3
-21.0,-21.0,-22.0,-21.0,-28.0,-37.0,-42.0,-57.0,-1.0,-6.0,-14.0,-16.0,-19.0,-27.0,-31.0,34.0,3
-23.0,-25.0,-21.0,-19.0,-21.0,-30.0,-38.0,-51.0,-4.0,-4.0,-7.0,-3.0,4.0,12.0,21.0,30.0,3
-24.0,25.0,16.0,29.0,47.0,94.0,185.0,127.0,126.0,126.0,25.0,25.0,31.0,74.0,256.0,546.0,3
4.0,1.0,0.0,-1.0,0.0,2.0,0.0,-4.0,-7.0,-6.0,-5.0,-4.0,-1.0,6.0,17.0,1.0,3
8.0,9.0,15.0,21.0,28.0,31.0,29.0,16.0,4.0,6.0,14.0,15.0,17.0,21.0,25.0,7.0,3
70.0,70.0,42.0,35.0,7.0,-88.0,-34.0,-52.0,-29.0,-51.0,11.0,25.0,31.0,7.0,-7.0,-93.0,3
-8.0,-6.0,-4.0,-5.0,-1.0,2.0,-21.0,-26.0,3.0,1.0,1.0,2.0,6.0,10.0,-2.0,18.0,3
-13.0,-8.0,17.0,3.0,93.0,236.0,386.0,566.0,118.0,128.0,32.0,31.0,29.0,47.0,106.0,348.0,3
-33.0,-36.0,-32.0,-31.0,-33.0,-31.0,7.0,1.0,-10.0,-14.0,-20.0,-19.0,-15.0,-18.0,-8.0,-18.0,3
96.0,96.0,69.0,67.0,41.0,54.0,-12.0,-58.0,40.0,20.0,41.0,45.0,50.0,43.0,51.0,71.0,3
0.0,-1.0,-2.0,-4.0,-6.0,15.0,54.0,20.0,-4.0,-11.0,-4.0,-5.0,-4.0,-13.0,-44.0,-23.0,3
-31.0,-20.0,-15.0,-15.0,-11.0,-10.0,-16.0,-43.0,-13.0,-11.0,-9.0,-12.0,-14.0,-17.0,-11.0,-14.0,3
8.0,12.0,10.0,20.0,27.0,44.0,59.0,47.0,15.0,13.0,11.0,18.0,23.0,31.0,52.0,34.0,3
-60.0,-37.0,-29.0,-27.0,-19.0,-33.0,108.0,149.0,-20.0,-23.0,-9.0,-16.0,-16.0,-17.0,-29.0,-79.0,3
24.0,19.0,15.0,7.0,13.0,35.0,62.0,51.0,17.0,16.0,5.0,3.0,-1.0,-22.0,-31.0,7.0,3
-35.0,5.0,-15.0,-3.0,5.0,-11.0,140.0,123.0,59.0,93.0,-5.0,-12.0,-18.0,-15.0,35.0,143.0,3
-23.0,-23.0,-22.0,-18.0,-22.0,-36.0,-71.0,-81.0,-16.0,-15.0,-15.0,-8.0,-4.0,4.0,26.0,20.0,3
-20.0,20.0,0.0,6.0,29.0,83.0,209.0,196.0,17.0,30.0,-1.0,-4.0,-11.0,-17.0,-23.0,105.0,3
-2.0,12.0,15.0,23.0,41.0,86.0,178.0,182.0,-9.0,-37.0,15.0,14.0,17.0,15.0,14.0,-5.0,3
61.0,60.0,55.0,51.0,50.0,12.0,17.0,39.0,19.0,13.0,28.0,25.0,11.0,-36.0,-39.0,-33.0,3
6.0,-8.0,-18.0,-18.0,-35.0,-55.0,-117.0,-177.0,-37.0,-43.0,-11.0,-19.0,-17.0,-13.0,-32.0,-53.0,3
-3.0,-4.0,-3.0,-4.0,-3.0,-2.0,6.0,12.0,-13.0,-12.0,-8.0,-9.0,-11.0,-20.0,-38.0,-28.0,3
-1.0,14.0,5.0,0.0,4.0,13.0,90.0,92.0,-12.0,-17.0,0.0,-1.0,4.0,10.0,19.0,-54.0,3
21.0,24.0,18.0,15.0,8.0,22.0,72.0,84.0,12.0,8.0,23.0,17.0,20.0,25.0,34.0,71.0,3
1.0,1.0,3.0,4.0,3.0,-4.0,-15.0,-5.0,3.0,1.0,5.0,7.0,5.0,8.0,0.0,6.0,3
-22.0,-4.0,-7.0,-2.0,16.0,85.0,165.0,175.0,-320.0,-384.0,-10.0,-8.0,-1.0,11.0,1.0,-55.0,3
51.0,18.0,5.0,-4.0,-34.0,-84.0,-161.0,-186.0,-12.0,-9.0,-9.0,-12.0,-15.0,-15.0,-39.0,-70.0,3
-82.0,-15.0,-17.0,1.0,29.0,55.0,323.0,348.0,-25.0,-36.0,3.0,0.0,1.0,-9.0,-4.0,-4.0,3
10.0,31.0,34.0,44.0,76.0,120.0,165.0,181.0,103.0,120.0,47.0,45.0,42.0,57.0,94.0,160.0,3
-27.0,-29.0,-25.0,-22.0,-25.0,-41.0,-66.0,-79.0,-37.0,-31.0,-24.0,-23.0,-22.0,-22.0,-24.0,-22.0,3
4.0,4.0,3.0,0.0,4.0,6.0,8.0,0.0,-3.0,-5.0,-1.0,0.0,2.0,1.0,0.0,-7.0,3
14.0,-4.0,2.0,-6.0,25.0,81.0,90.0,191.0,256.0,325.0,25.0,13.0,13.0,34.0,92.0,171.0,3
14.0,14.0,7.0,13.0,20.0,22.0,-14.0,-59.0,8.0,8.0,8.0,8.0,7.0,1.0,8.0,-11.0,3
96.0,78.0,72.0,66.0,66.0,75.0,48.0,45.0,58.0,54.0,44.0,42.0,35.0,19.0,-11.0,21.0,3
-3.0,-1.0,-5.0,-8.0,-13.0,-12.0,17.0,29.0,22.0,21.0,5.0,1.0,2.0,6.0,35.0,27.0,3
-21.0,-2.0,0.0,3.0,15.0,25.0,-8.0,-51.0,-3.0,-2.0,1.0,3.0,1.0,-2.0,-23.0,-17.0,3
6.0,-7.0,-8.0,-10.0,-2.0,12.0,-89.0,-98.0,-13.0,-16.0,-18.0,-18.0,-21.0,-23.0,-33.0,-29.0,3
15.0,12.0,8.0,7.0,5.0,3.0,14.0,6.0,25.0,21.0,13.0,13.0,15.0,22.0,34.0,49.0,3
-4.0,-5.0,-3.0,-2.0,1.0,-1.0,4.0,8.0,-13.0,-9.0,-4.0,-1.0,-1.0,-3.0,11.0,-18.0,3
-40.0,-42.0,-37.0,-32.0,-24.0,-17.0,-97.0,-137.0,-35.0,-35.0,-29.0,-26.0,-20.0,-7.0,-8.0,-81.0,3
93.0,112.0,77.0,81.0,54.0,71.0,110.0,64.0,-83.0,-111.0,56.0,64.0,73.0,38.0,-65.0,-375.0,3
-106.0,-88.0,-81.0,-82.0,-75.0,-59.0,-81.0,-162.0,-43.0,-40.0,-52.0,-56.0,-56.0,-66.0,-60.0,-4.0,3
-178.0,-73.0,-48.0,-19.0,71.0,222.0,475.0,489.0,-8.0,-13.0,-8.0,-4.0,-3.0,-6.0,-18.0,-25.0,3
-26.0,15.0,12.0,17.0,26.0,44.0,175.0,169.0,-46.0,-51.0,-3.0,-10.0,-18.0,-56.0,-99.0,-132.0,3
73.0,74.0,70.0,64.0,57.0,59.0,81.0,81.0,46.0,42.0,56.0,54.0,55.0,52.0,59.0,80.0,3
-6.0,4.0,3.0,14.0,17.0,31.0,30.0,6.0,26.0,21.0,16.0,17.0,21.0,25.0,40.0,11.0,3
-97.0,-35.0,-17.0,-1.0,86.0,156.0,433.0,464.0,182.0,225.0,1.0,-10.0,-25.0,-14.0,61.0,458.0,3
2.0,-3.0,-4.0,-5.0,-14.0,-27.0,-38.0,-13.0,-16.0,-11.0,-6.0,-8.0,-9.0,-11.0,-35.0,-41.0,3
-28.0,-28.0,-29.0,-29.0,-26.0,-47.0,-34.0,-27.0,-28.0,-28.0,-22.0,-23.0,-24.0,-30.0,-43.0,-32.0,3
18.0,17.0,18.0,16.0,12.0,10.0,28.0,36.0,23.0,23.0,19.0,24.0,23.0,22.0,25.0,25.0,3
7.0,-11.0,-14.0,-20.0,-40.0,-68.0,-126.0,-166.0,-12.0,-13.0,-17.0,-24.0,-31.0,-50.0,-128.0,-56.0,3
54.0,62.0,35.0,38.0,-8.0,-77.0,-169.0,-256.0,41.0,27.0,15.0,19.0,23.0,7.0,-16.0,-131.0,3
-32.0,-30.0,-27.0,-19.0,3.0,26.0,6.0,-12.0,-34.0,-32.0,-25.0,-25.0,-30.0,-48.0,-63.0,-27.0,3
39.0,28.0,25.0,16.0,7.0,12.0,24.0,38.0,26.0,25.0,23.0,21.0,19.0,21.0,21.0,9.0,3
-114.0,-35.0,-50.0,-28.0,11.0,59.0,371.0,321.0,-53.0,-73.0,-14.0,-19.0,-13.0,1.0,48.0,19.0,3
-27.0,-20.0,-26.0,-26.0,-45.0,-121.0,-115.0,-126.0,14.0,7.0,-25.0,-25.0,-26.0,-19.0,20.0,120.0,3
59.0,27.0,15.0,12.0,-20.0,-56.0,-123.0,-142.0,1.0,5.0,3.0,8.0,13.0,24.0,63.0,36.0,3
2.0,-4.0,-5.0,-13.0,-17.0,-18.0,-18.0,-10.0,-8.0,-8.0,-11.0,-12.0,-9.0,-4.0,24.0,17.0,3
-62.0,1.0,-20.0,-3.0,17.0,33.0,266.0,229.0,-70.0,-76.0,-16.0,-20.0,-18.0,-25.0,-63.0,-111.0,3
78.0,95.0,61.0,63.0,37.0,57.0,97.0,50.0,-100.0,-123.0,50.0,53.0,62.0,23.0,-95.0,-470.0,3
-71.0,-3.0,-4.0,16.0,46.0,74.0,285.0,276.0,-32.0,-43.0,6.0,8.0,8.0,-10.0,-64.0,-67.0,3
-20.0,-10.0,-20.0,-15.0,-22.0,-26.0,-5.0,-77.0,-77.0,-94.0,-27.0,-26.0,-27.0,-55.0,-93.0,-160.0,3
-10.0,27.0,9.0,20.0,30.0,91.0,265.0,215.0,-47.0,-67.0,10.0,13.0,25.0,46.0,57.0,-2.0,3
35.0,27.0,21.0,19.0,23.0,31.0,40.0,40.0,31.0,29.0,21.0,15.0,6.0,-5.0,5.0,5.0,3
9.0,46.0,29.0,35.0,28.0,141.0,333.0,346.0,1.0,-12.0,42.0,34.0,40.0,36.0,8.0,-124.0,3
62.0,43.0,42.0,35.0,36.0,44.0,-11.0,-14.0,25.0,24.0,23.0,23.0,12.0,-14.0,27.0,-3.0,3
-30.0,-11.0,-12.0,-6.0,-7.0,2.0,33.0,18.0,-5.0,-11.0,1.0,-1.0,1.0,9.0,23.0,-31.0,3
28.0,25.0,25.0,27.0,26.0,28.0,8.0,6.0,35.0,35.0,27.0,29.0,31.0,41.0,66.0,74.0,3
-12.0,-7.0,2.0,8.0,18.0,24.0,16.0,23.0,12.0,7.0,2.0,7.0,2.0,-7.0,-12.0,2.0,3
-86.0,-24.0,-25.0,-5.0,29.0,80.0,267.0,212.0,-45.0,-52.0,-7.0,-10.0,-11.0,-28.0,-30.0,-64.0,3
-1.0,-4.0,-1.0,-2.0,-8.0,-21.0,-20.0,-20.0,-10.0,-7.0,-4.0,-3.0,-4.0,-4.0,-8.0,-2.0,3
60.0,34.0,25.0,11.0,-8.0,-44.0,-94.0,-90.0,10.0,7.0,1.0,2.0,5.0,1.0,-7.0,8.0,3
21.0,17.0,19.0,19.0,24.0,29.0,25.0,23.0,24.0,23.0,19.0,18.0,24.0,33.0,13.0,4.0,3
11.0,14.0,13.0,17.0,16.0,13.0,-12.0,-37.0,28.0,25.0,23.0,24.0,28.0,41.0,82.0,38.0,3
-2.0,-4.0,-8.0,-5.0,-6.0,-6.0,-19.0,-23.0,17.0,14.0,4.0,3.0,6.0,17.0,38.0,29.0,3
-16.0,39.0,27.0,44.0,69.0,110.0,358.0,357.0,88.0,96.0,51.0,48.0,52.0,96.0,165.0,205.0,3
-25.0,-3.0,-3.0,8.0,17.0,6.0,-15.0,-80.0,-20.0,-35.0,4.0,12.0,23.0,40.0,66.0,-2.0,3
-95.0,-39.0,-5.0,11.0,119.0,212.0,448.0,533.0,147.0,170.0,25.0,25.0,27.0,66.0,196.0,399.0,3
21.0,-13.0,-27.0,-39.0,-66.0,-116.0,-216.0,-235.0,-37.0,-39.0,-33.0,-33.0,-35.0,-44.0,-80.0,-46.0,3
-30.0,-14.0,-43.0,-58.0,-61.0,-178.0,-33.0,-73.0,146.0,202.0,-13.0,-32.0,-33.0,-22.0,87.0,107.0,3
61.0,81.0,55.0,51.0,25.0,-41.0,-43.0,-128.0,49.0,46.0,52.0,43.0,50.0,42.0,-5.0,-175.0,3
5.0,15.0,6.0,4.0,-16.0,-60.0,-34.0,-24.0,-78.0,-107.0,-11.0,-12.0,-13.0,-38.0,-77.0,-132.0,3
-30.0,-28.0,-23.0,-19.0,-17.0,-19.0,-10.0,13.0,-15.0,-16.0,-12.0,-12.0,-12.0,-19.0,3.0,-1.0,3
20.0,17.0,16.0,15.0,14.0,14.0,13.0,9.0,15.0,14.0,8.0,9.0,10.0,17.0,51.0,28.0,3
15.0,39.0,30.0,38.0,45.0,100.0,124.0,29.0,-74.0,-103.0,29.0,17.0,24.0,10.0,-78.0,-542.0,3
-84.0,-14.0,-16.0,2.0,30.0,58.0,261.0,249.0,-51.0,-57.0,-5.0,-4.0,-9.0,-35.0,-107.0,-126.0,3
23.0,86.0,69.0,93.0,186.0,410.0,791.0,782.0,78.0,66.0,77.0,68.0,78.0,91.0,93.0,104.0,3
105.0,101.0,81.0,82.0,60.0,86.0,0.0,-45.0,-6.0,-27.0,51.0,53.0,55.0,27.0,1.0,-172.0,3
-1.0,-4.0,-4.0,-9.0,-17.0,-23.0,-21.0,-18.0,3.0,1.0,0.0,0.0,0.0,6.0,27.0,23.0,3
70.0,62.0,57.0,62.0,52.0,46.0,-50.0,-121.0,32.0,29.0,33.0,41.0,47.0,55.0,59.0,29.0,3
45.0,71.0,57.0,64.0,61.0,59.0,147.0,95.0,43.0,15.0,54.0,56.0,61.0,55.0,66.0,-5.0,3
11.0,46.0,23.0,33.0,32.0,66.0,147.0,120.0,47.0,57.0,15.0,15.0,14.0,38.0,54.0,160.0,3
-3.0,-3.0,-5.0,1.0,-3.0,-13.0,-9.0,-3.0,1.0,0.0,-1.0,-1.0,0.0,3.0,27.0,18.0,3
28.0,17.0,7.0,-1.0,-42.0,-199.0,-136.0,-150.0,60.0,71.0,4.0,5.0,6.0,12.0,34.0,138.0,3
-31.0,-35.0,-38.0,-37.0,-41.0,-56.0,-66.0,-63.0,-29.0,-27.0,-22.0,-26.0,-28.0,-28.0,18.0,13.0,3
51.0,53.0,24.0,22.0,-14.0,-80.0,-114.0,-164.0,58.0,53.0,13.0,17.0,20.0,29.0,53.0,120.0,3
18.0,56.0,32.0,43.0,41.0,34.0,180.0,155.0,-65.0,-97.0,17.0,17.0,17.0,4.0,-41.0,-98.0,3
7.0,-3.0,-5.0,-6.0,-5.0,-4.0,-6.0,15.0,-14.0,-11.0,-8.0,-8.0,-6.0,-2.0,22.0,13.0,3
-18.0,-22.0,-17.0,-11.0,-14.0,-20.0,-32.0,-35.0,-11.0,-11.0,-9.0,-8.0,-4.0,-1.0,-18.0,-29.0,3
-25.0,-24.0,-25.0,-21.0,-29.0,-6.0,-32.0,-60.0,-3.0,-10.0,-16.0,-16.0,-21.0,-35.0,-12.0,17.0,3
4.0,2.0,0.0,0.0,-13.0,-50.0,-33.0,-38.0,-3.0,-1.0,-5.0,-5.0,-9.0,-23.0,-46.0,-14.0,3
36.0,9.0,0.0,-8.0,-30.0,-66.0,-114.0,-112.0,-1.0,-3.0,-8.0,-7.0,-10.0,-15.0,-40.0,-38.0,3
3.0,22.0,18.0,20.0,38.0,58.0,41.0,8.0,5.0,10.0,10.0,6.0,1.0,-3.0,-30.0,-46.0,3
22.0,40.0,9.0,10.0,-17.0,-99.0,-13.0,-59.0,-101.0,-132.0,-2.0,1.0,2.0,13.0,-2.0,-77.0,3
29.0,22.0,2.0,6.0,-17.0,6.0,-84.0,-140.0,-93.0,-118.0,-10.0,-11.0,-5.0,-29.0,-80.0,-237.0,3
5.0,10.0,2.0,0.0,-4.0,20.0,106.0,137.0,-21.0,-27.0,11.0,3.0,6.0,15.0,27.0,89.0,3
11.0,39.0,24.0,29.0,39.0,57.0,161.0,164.0,-13.0,-17.0,17.0,23.0,27.0,25.0,-14.0,-109.0,3
-6.0,-4.0,2.0,1.0,8.0,23.0,26.0,19.0,14.0,12.0,-1.0,1.0,-1.0,-2.0,29.0,22.0,3
6.0,-1.0,-4.0,-5.0,8.0,75.0,-3.0,19.0,3.0,5.0,-1.0,-4.0,0.0,11.0,40.0,27.0,3
5.0,4.0,4.0,8.0,-1.0,-14.0,-33.0,-46.0,9.0,7.0,-1.0,-7.0,-12.0,-16.0,-15.0,-18.0,3
92.0,50.0,39.0,31.0,5.0,-61.0,-144.0,-156.0,13.0,15.0,15.0,20.0,23.0,28.0,35.0,0.0,3
