0,1,2,3,4,5,6,7,8,9,10,11,12,13,14,15,16
-10.0,-11.0,-14.0,-21.0,-15.0,-13.0,-13.0,-11.0,-6.0,-1.0,-6.0,-6.0,-7.0,-5.0,-6.0,-5.0,7
-15.0,-9.0,-3.0,0.0,-2.0,0.0,-8.0,-12.0,-52.0,-36.0,-15.0,-7.0,-7.0,2.0,17.0,63.0,7
14.0,24.0,15.0,27.0,49.0,84.0,44.0,27.0,-181.0,-67.0,27.0,29.0,25.0,16.0,57.0,96.0,7
25.0,27.0,22.0,24.0,19.0,19.0,12.0,19.0,-45.0,-91.0,11.0,17.0,20.0,27.0,49.0,45.0,7
-11.0,-11.0,-13.0,-16.0,-24.0,-24.0,-19.0,-11.0,91.0,-12.0,-22.0,-12.0,-9.0,-7.0,6.0,-11.0,7
11.0,4.0,10.0,17.0,19.0,16.0,17.0,13.0,-154.0,-201.0,-7.0,6.0,13.0,29.0,65.0,106.0,7
-12.0,-16.0,-18.0,-20.0,-19.0,-12.0,-4.0,-7.0,-16.0,-22.0,-16.0,-18.0,-13.0,-7.0,-1.0,-7.0,7
-123.0,-120.0,-115.0,-119.0,-132.0,-114.0,-108.0,-107.0,-35.0,51.0,-93.0,-95.0,-94.0,-89.0,-126.0,-138.0,7
21.0,22.0,24.0,25.0,26.0,26.0,19.0,15.0,-47.0,-70.0,11.0,7.0,3.0,8.0,20.0,41.0,7
64.0,63.0,62.0,56.0,57.0,62.0,71.0,62.0,-103.0,43.0,62.0,57.0,67.0,114.0,145.0,142.0,7
17.0,16.0,14.0,13.0,11.0,19.0,17.0,16.0,-26.0,-46.0,3.0,3.0,5.0,9.0,13.0,17.0,7
30.0,29.0,27.0,25.0,26.0,31.0,32.0,32.0,82.0,-140.0,34.0,32.0,37.0,56.0,70.0,57.0,7
-1.0,-3.0,0.0,4.0,4.0,4.0,0.0,-3.0,-11.0,-5.0,-6.0,-7.0,-12.0,-4.0,-1.0,3.0,7
6.0,2.0,6.0,7.0,6.0,5.0,3.0,8.0,-19.0,-39.0,9.0,9.0,11.0,20.0,23.0,35.0,7
-1.0,-3.0,-2.0,-1.0,-1.0,-4.0,-10.0,-6.0,19.0,-10.0,3.0,2.0,6.0,20.0,23.0,12.0,7
26.0,34.0,32.0,30.0,24.0,20.0,29.0,19.0,-63.0,-217.0,-7.0,21.0,19.0,7.0,30.0,65.0,7
18.0,17.0,14.0,14.0,15.0,19.0,24.0,18.0,-67.0,-107.0,6.0,12.0,12.0,32.0,54.0,77.0,7
3.0,-2.0,-2.0,-5.0,-8.0,5.0,24.0,13.0,-54.0,-158.0,-24.0,-6.0,-3.0,-2.0,10.0,58.0,7
8.0,11.0,10.0,10.0,9.0,13.0,8.0,8.0,2.0,-19.0,9.0,8.0,12.0,12.0,9.0,14.0,7
49.0,50.0,50.0,43.0,43.0,45.0,49.0,47.0,-259.0,-158.0,39.0,52.0,51.0,70.0,127.0,165.0,7
-15.0,-16.0,-19.0,-28.0,-18.0,-11.0,-5.0,-9.0,-4.0,-15.0,-7.0,-6.0,-6.0,-12.0,-9.0,-10.0,7
-5.0,-6.0,-6.0,-5.0,-6.0,-7.0,-10.0,-5.0,-11.0,8.0,2.0,-3.0,-9.0,-6.0,-6.0,-3.0,7
8.0,7.0,6.0,4.0,8.0,13.0,21.0,14.0,10.0,-4.0,1.0,0.0,-4.0,-16.0,-19.0,-19.0,7
12.0,15.0,-2.0,6.0,13.0,3.0,13.0,12.0,-122.0,-94.0,5.0,8.0,10.0,5.0,10.0,17.0,7
13.0,14.0,15.0,17.0,16.0,18.0,17.0,13.0,-37.0,-6.0,11.0,10.0,16.0,13.0,14.0,23.0,7
-82.0,-64.0,-79.0,-70.0,-64.0,-59.0,-58.0,-58.0,-25.0,73.0,-28.0,-55.0,-74.0,-84.0,-112.0,-67.0,7
-6.0,-6.0,-6.0,-6.0,-7.0,-6.0,-8.0,-4.0,-7.0,-12.0,2.0,3.0,2.0,0.0,3.0,5.0,7
-57.0,-49.0,-49.0,-54.0,-40.0,-51.0,-77.0,-75.0,64.0,131.0,-26.0,-56.0,-88.0,-54.0,-78.0,-120.0,7
12.0,12.0,10.0,13.0,13.0,8.0,4.0,8.0,29.0,1.0,12.0,11.0,9.0,16.0,17.0,10.0,7
-56.0,-58.0,-50.0,-43.0,-35.0,-39.0,-37.0,-49.0,93.0,371.0,-6.0,-29.0,-28.0,-44.0,-100.0,-192.0,7
10.0,10.0,8.0,6.0,5.0,9.0,10.0,10.0,-2.0,10.0,3.0,-1.0,0.0,-8.0,-16.0,-3.0,7
10.0,10.0,8.0,9.0,7.0,4.0,10.0,9.0,15.0,10.0,13.0,14.0,13.0,6.0,9.0,14.0,7
-3.0,-7.0,-10.0,-14.0,-12.0,-7.0,-2.0,-6.0,14.0,5.0,-5.0,-4.0,-6.0,-4.0,0.0,-2.0,7
-2.0,-3.0,-5.0,-7.0,-10.0,7.0,5.0,2.0,0.0,-41.0,-6.0,-4.0,-3.0,-13.0,-8.0,0.0,7
14.0,16.0,10.0,5.0,6.0,4.0,3.0,3.0,9.0,13.0,4.0,3.0,5.0,2.0,0.0,-1.0,7
69.0,66.0,63.0,64.0,61.0,67.0,69.0,70.0,-99.0,-182.0,62.0,69.0,73.0,98.0,135.0,145.0,7
-9.0,-10.0,-11.0,-12.0,-11.0,-8.0,-8.0,-9.0,-39.0,-31.0,-1.0,-1.0,0.0,1.0,-1.0,-2.0,7
11.0,10.0,11.0,12.0,11.0,6.0,8.0,10.0,5.0,-1.0,6.0,6.0,5.0,1.0,4.0,7.0,7
-81.0,-78.0,-74.0,-74.0,-71.0,-75.0,-93.0,-86.0,-11.0,131.0,-51.0,-62.0,-74.0,-61.0,-97.0,-116.0,7
-11.0,-12.0,-12.0,-11.0,-10.0,-11.0,-2.0,-4.0,-8.0,-15.0,-12.0,-9.0,-10.0,-12.0,-7.0,5.0,7
9.0,8.0,2.0,0.0,-1.0,1.0,0.0,8.0,-6.0,-49.0,4.0,6.0,13.0,14.0,17.0,24.0,7
13.0,13.0,12.0,12.0,11.0,13.0,11.0,10.0,8.0,13.0,4.0,3.0,6.0,6.0,8.0,7.0,7
-2.0,0.0,2.0,2.0,0.0,1.0,2.0,1.0,-1.0,-4.0,3.0,1.0,4.0,6.0,4.0,3.0,7
19.0,19.0,16.0,17.0,20.0,28.0,29.0,20.0,11.0,-10.0,8.0,9.0,12.0,8.0,9.0,17.0,7
-27.0,-22.0,-12.0,-4.0,2.0,-6.0,-20.0,-27.0,29.0,76.0,-27.0,-17.0,-20.0,-15.0,-24.0,-34.0,7
9.0,-3.0,-3.0,6.0,18.0,43.0,28.0,9.0,-577.0,-322.0,-1.0,9.0,9.0,17.0,129.0,290.0,7
7.0,6.0,8.0,8.0,6.0,6.0,6.0,5.0,2.0,13.0,-1.0,-1.0,-1.0,-1.0,0.0,-2.0,7
33.0,32.0,28.0,29.0,32.0,47.0,35.0,30.0,-211.0,-177.0,8.0,20.0,27.0,41.0,92.0,128.0,7
-12.0,-13.0,-14.0,-15.0,-15.0,-16.0,-23.0,-16.0,-56.0,-24.0,-8.0,-11.0,-13.0,-6.0,1.0,-1.0,7
11.0,11.0,8.0,8.0,5.0,1.0,4.0,4.0,8.0,4.0,9.0,10.0,10.0,8.0,9.0,8.0,7
-23.0,-22.0,-12.0,-3.0,-2.0,0.0,2.0,-1.0,18.0,21.0,-6.0,-7.0,-5.0,-6.0,-8.0,-14.0,7
1.0,1.0,-1.0,-1.0,-3.0,-2.0,0.0,1.0,-14.0,-5.0,-1.0,1.0,1.0,6.0,7.0,14.0,7
-3.0,-2.0,-2.0,1.0,1.0,-5.0,-2.0,1.0,12.0,-2.0,-1.0,-4.0,-8.0,-13.0,-13.0,-7.0,7
-5.0,-6.0,-9.0,-10.0,-11.0,-8.0,1.0,2.0,-13.0,-21.0,-4.0,-7.0,-10.0,-10.0,-13.0,1.0,7
28.0,31.0,27.0,27.0,21.0,14.0,20.0,19.0,-32.0,-145.0,6.0,3.0,-22.0,-23.0,14.0,51.0,7
-6.0,-9.0,-9.0,-4.0,0.0,-6.0,-19.0,-9.0,-21.0,-17.0,-5.0,-6.0,-7.0,4.0,12.0,4.0,7
-2.0,-2.0,-4.0,-4.0,-8.0,1.0,0.0,-1.0,-12.0,2.0,-8.0,-5.0,-8.0,-16.0,-12.0,-5.0,7
67.0,62.0,67.0,74.0,66.0,66.0,66.0,68.0,89.0,13.0,62.0,66.0,73.0,95.0,120.0,89.0,7
16.0,14.0,14.0,17.0,15.0,13.0,13.0,13.0,-43.0,-39.0,2.0,3.0,3.0,2.0,7.0,38.0,7
-76.0,-68.0,-66.0,-68.0,-68.0,-65.0,-99.0,-98.0,-43.0,19.0,-72.0,-76.0,-81.0,-77.0,-108.0,-84.0,7
39.0,37.0,37.0,37.0,35.0,45.0,43.0,42.0,110.0,63.0,51.0,48.0,49.0,65.0,69.0,35.0,7
-50.0,-48.0,-50.0,-55.0,-52.0,-55.0,-53.0,-51.0,-25.0,11.0,-48.0,-47.0,-51.0,-63.0,-82.0,-79.0,7
-18.0,-7.0,-9.0,-13.0,-18.0,-25.0,-44.0,-28.0,-53.0,-79.0,-13.0,-6.0,-4.0,0.0,26.0,35.0,7
-4.0,-3.0,-2.0,0.0,-3.0,-18.0,-24.0,-8.0,-33.0,-56.0,3.0,13.0,21.0,43.0,61.0,43.0,7
46.0,44.0,44.0,54.0,40.0,43.0,44.0,44.0,-20.0,-97.0,34.0,55.0,70.0,74.0,78.0,46.0,7
3.0,10.0,5.0,-1.0,7.0,18.0,7.0,1.0,-6.0,-19.0,3.0,5.0,3.0,3.0,7.0,4.0,7
32.0,28.0,25.0,24.0,18.0,15.0,21.0,28.0,-140.0,-195.0,9.0,30.0,38.0,55.0,111.0,136.0,7
-5.0,-1.0,-3.0,-4.0,-5.0,-7.0,-9.0,-8.0,-24.0,-13.0,-11.0,-8.0,-10.0,-9.0,11.0,35.0,7
-10.0,-11.0,-12.0,-14.0,-12.0,-7.0,-11.0,-9.0,-9.0,-7.0,-5.0,-6.0,-7.0,-7.0,-3.0,-1.0,7
15.0,13.0,9.0,9.0,8.0,1.0,-4.0,9.0,35.0,26.0,14.0,13.0,17.0,34.0,35.0,19.0,7
6.0,7.0,7.0,11.0,6.0,6.0,5.0,4.0,-3.0,-9.0,2.0,2.0,-1.0,-2.0,-10.0,1.0,7
35.0,35.0,32.0,33.0,29.0,24.0,31.0,31.0,72.0,-47.0,3.0,31.0,38.0,19.0,22.0,-5.0,7
6.0,7.0,6.0,6.0,4.0,1.0,-1.0,5.0,6.0,7.0,10.0,8.0,12.0,22.0,10.0,9.0,7
9.0,10.0,13.0,14.0,10.0,19.0,7.0,10.0,-57.0,-119.0,1.0,8.0,10.0,10.0,23.0,41.0,7
5.0,10.0,13.0,14.0,13.0,11.0,8.0,5.0,-31.0,12.0,9.0,7.0,2.0,2.0,10.0,12.0,7
11.0,12.0,9.0,12.0,13.0,8.0,14.0,10.0,-1.0,-1.0,5.0,7.0,8.0,4.0,-8.0,0.0,7
7.0,13.0,5.0,3.0,2.0,2.0,1.0,-1.0,-6.0,-2.0,5.0,7.0,7.0,6.0,5.0,9.0,7
-3.0,-1.0,-1.0,0.0,-2.0,1.0,4.0,-6.0,-7.0,4.0,-1.0,-6.0,-23.0,-31.0,-35.0,-17.0,7
-11.0,-14.0,-14.0,-17.0,-18.0,-17.0,-5.0,-5.0,-3.0,3.0,-10.0,-10.0,-11.0,-17.0,-28.0,-11.0,7
-28.0,-35.0,-32.0,-30.0,-28.0,-28.0,-35.0,-25.0,4.0,-64.0,-21.0,-17.0,-19.0,-32.0,-33.0,-19.0,7
18.0,19.0,21.0,22.0,19.0,21.0,14.0,10.0,4.0,16.0,9.0,6.0,4.0,-1.0,-4.0,1.0,7
-2.0,-2.0,-1.0,0.0,-2.0,-4.0,-4.0,-2.0,-1.0,2.0,5.0,6.0,5.0,2.0,2.0,1.0,7
0.0,-5.0,-4.0,-5.0,-5.0,-5.0,-6.0,-6.0,7.0,17.0,1.0,0.0,2.0,2.0,-9.0,-9.0,7
-20.0,-24.0,-22.0,-20.0,-18.0,-24.0,-32.0,-19.0,-66.0,-19.0,-14.0,-16.0,-11.0,4.0,13.0,13.0,7
57.0,55.0,54.0,59.0,51.0,58.0,68.0,61.0,17.0,-39.0,48.0,56.0,61.0,63.0,60.0,44.0,7
-8.0,-7.0,-7.0,-8.0,-5.0,-8.0,-11.0,-8.0,-20.0,-19.0,-8.0,-9.0,-9.0,-11.0,-2.0,-11.0,7
4.0,4.0,3.0,5.0,5.0,4.0,3.0,2.0,-5.0,11.0,-3.0,-5.0,-3.0,-3.0,-6.0,-9.0,7
-20.0,-20.0,-19.0,-19.0,-23.0,-21.0,-20.0,-21.0,-34.0,-10.0,-15.0,-11.0,-10.0,-15.0,-10.0,-2.0,7
6.0,6.0,4.0,3.0,3.0,5.0,8.0,6.0,81.0,73.0,5.0,-4.0,-4.0,-7.0,-20.0,-30.0,7
27.0,28.0,26.0,27.0,25.0,27.0,30.0,23.0,-123.0,-212.0,2.0,29.0,34.0,25.0,63.0,100.0,7
5.0,5.0,7.0,9.0,8.0,9.0,14.0,10.0,16.0,21.0,5.0,4.0,5.0,3.0,0.0,3.0,7
19.0,25.0,39.0,33.0,47.0,87.0,40.0,29.0,-82.0,-8.0,19.0,28.0,39.0,53.0,46.0,46.0,7
10.0,11.0,8.0,9.0,9.0,5.0,3.0,7.0,36.0,-3.0,12.0,14.0,25.0,26.0,23.0,-4.0,7
13.0,11.0,8.0,8.0,10.0,12.0,8.0,1.0,167.0,65.0,3.0,16.0,17.0,0.0,-46.0,-117.0,7
4.0,5.0,2.0,-2.0,3.0,4.0,3.0,-1.0,7.0,20.0,0.0,-4.0,-6.0,-3.0,-10.0,-3.0,7
38.0,29.0,19.0,18.0,20.0,21.0,45.0,45.0,-77.0,-146.0,8.0,14.0,16.0,39.0,89.0,131.0,7
0.0,-4.0,-2.0,-3.0,-2.0,-1.0,-2.0,0.0,-1.0,-2.0,1.0,2.0,2.0,-2.0,-7.0,1.0,7
-14.0,-16.0,-13.0,-12.0,-13.0,-13.0,-15.0,-12.0,4.0,-7.0,-12.0,-11.0,-12.0,-5.0,-1.0,-12.0,7
4.0,-2.0,-6.0,-10.0,-7.0,1.0,16.0,14.0,-7.0,-32.0,-6.0,-8.0,-10.0,-6.0,-12.0,1.0,7
42.0,42.0,34.0,29.0,24.0,32.0,48.0,42.0,-77.0,-101.0,21.0,23.0,21.0,21.0,37.0,81.0,7
-19.0,-22.0,-21.0,-23.0,-21.0,-23.0,-24.0,-19.0,4.0,12.0,-9.0,-12.0,-12.0,-12.0,-10.0,-11.0,7
14.0,13.0,12.0,8.0,11.0,13.0,15.0,13.0,8.0,11.0,7.0,9.0,9.0,7.0,6.0,8.0,7
-48.0,-42.0,-38.0,-36.0,-39.0,-27.0,-43.0,-43.0,384.0,541.0,12.0,-24.0,-21.0,-43.0,-136.0,-254.0,7
-23.0,-23.0,-23.0,-22.0,-23.0,-18.0,-13.0,-18.0,-21.0,-7.0,-23.0,-24.0,-24.0,-34.0,-29.0,-20.0,7
25.0,32.0,18.0,16.0,14.0,0.0,17.0,18.0,-416.0,-158.0,13.0,17.0,21.0,33.0,91.0,162.0,7
-16.0,-10.0,7.0,17.0,24.0,20.0,-23.0,-33.0,-12.0,13.0,-8.0,-10.0,-4.0,-2.0,3.0,29.0,7
-27.0,-22.0,-24.0,-28.0,-24.0,-26.0,-27.0,-26.0,0.0,18.0,-16.0,-22.0,-24.0,-28.0,-28.0,-14.0,7
10.0,9.0,12.0,14.0,15.0,17.0,14.0,12.0,12.0,16.0,9.0,8.0,8.0,19.0,13.0,15.0,7
-18.0,-16.0,-18.0,-25.0,-28.0,-26.0,-20.0,-21.0,-25.0,-10.0,-23.0,-22.0,-27.0,-43.0,-44.0,-33.0,7
-1.0,1.0,1.0,1.0,-2.0,0.0,-14.0,-5.0,15.0,40.0,3.0,5.0,8.0,10.0,10.0,6.0,7
-9.0,-10.0,-11.0,-11.0,-13.0,-11.0,-9.0,-5.0,-7.0,-13.0,-7.0,-5.0,-5.0,-2.0,3.0,0.0,7
14.0,12.0,9.0,10.0,10.0,14.0,23.0,20.0,-70.0,-107.0,-2.0,4.0,3.0,8.0,26.0,56.0,7
-48.0,-37.0,-34.0,-30.0,-20.0,-23.0,-49.0,-47.0,227.0,482.0,12.0,-39.0,-48.0,-55.0,-128.0,-218.0,7
-68.0,-63.0,-56.0,-57.0,-54.0,-56.0,-69.0,-66.0,113.0,405.0,2.0,-41.0,-54.0,-74.0,-118.0,-191.0,7
56.0,61.0,60.0,55.0,53.0,55.0,55.0,51.0,-284.0,-153.0,38.0,49.0,48.0,70.0,128.0,177.0,7
-15.0,-15.0,-15.0,-15.0,-16.0,-14.0,-18.0,-18.0,1.0,-1.0,-10.0,-11.0,-13.0,-14.0,-16.0,-16.0,7
27.0,21.0,23.0,24.0,25.0,25.0,24.0,24.0,29.0,-93.0,20.0,21.0,23.0,39.0,24.0,13.0,7
-1.0,-1.0,-3.0,-2.0,-2.0,1.0,-1.0,2.0,-35.0,-2.0,-6.0,-5.0,-4.0,-5.0,-17.0,-1.0,7
62.0,59.0,53.0,53.0,53.0,34.0,49.0,53.0,-65.0,-198.0,24.0,46.0,54.0,46.0,73.0,96.0,7
7.0,5.0,4.0,1.0,2.0,4.0,8.0,10.0,3.0,3.0,13.0,11.0,10.0,5.0,13.0,12.0,7
-60.0,-58.0,-55.0,-59.0,-64.0,-54.0,-67.0,-67.0,-29.0,36.0,-52.0,-64.0,-70.0,-84.0,-107.0,-61.0,7
8.0,10.0,10.0,6.0,7.0,9.0,3.0,5.0,15.0,1.0,3.0,3.0,1.0,-7.0,-4.0,-7.0,7
7.0,7.0,7.0,7.0,3.0,11.0,10.0,6.0,-49.0,-85.0,0.0,2.0,4.0,1.0,-3.0,23.0,7
-7.0,-8.0,-7.0,-8.0,-12.0,-16.0,-12.0,-8.0,2.0,-1.0,0.0,-2.0,-5.0,-2.0,0.0,5.0,7
20.0,16.0,12.0,8.0,12.0,22.0,25.0,21.0,20.0,11.0,6.0,9.0,8.0,-8.0,-12.0,-7.0,7
-40.0,-37.0,-34.0,-36.0,-42.0,-36.0,-38.0,-37.0,-12.0,-35.0,-29.0,-10.0,14.0,-19.0,-20.0,-35.0,7
3.0,5.0,6.0,8.0,7.0,2.0,0.0,2.0,0.0,-7.0,3.0,-2.0,-12.0,-1.0,3.0,8.0,7
2.0,1.0,0.0,-1.0,-1.0,-1.0,-7.0,-2.0,7.0,13.0,-1.0,-1.0,0.0,4.0,8.0,2.0,7
-7.0,-7.0,-7.0,-4.0,-8.0,-1.0,-1.0,-6.0,137.0,-103.0,7.0,-10.0,-7.0,19.0,-3.0,-43.0,7
-1.0,-1.0,-6.0,-10.0,-7.0,-1.0,1.0,-3.0,-2.0,-2.0,0.0,-2.0,-1.0,0.0,-5.0,-2.0,7
35.0,36.0,35.0,29.0,39.0,48.0,42.0,36.0,-180.0,-170.0,24.0,34.0,42.0,58.0,102.0,135.0,7
15.0,11.0,10.0,11.0,10.0,2.0,13.0,15.0,-39.0,-74.0,4.0,7.0,7.0,18.0,23.0,31.0,7
17.0,17.0,13.0,12.0,9.0,13.0,19.0,19.0,-1.0,-41.0,9.0,12.0,19.0,21.0,21.0,30.0,7
25.0,25.0,25.0,29.0,34.0,25.0,27.0,22.0,-109.0,-196.0,-14.0,8.0,7.0,3.0,50.0,85.0,7
17.0,16.0,13.0,12.0,8.0,12.0,20.0,15.0,114.0,-40.0,31.0,19.0,23.0,41.0,28.0,-15.0,7
1.0,-1.0,-1.0,0.0,-2.0,-4.0,-2.0,4.0,17.0,19.0,0.0,-3.0,-4.0,-1.0,14.0,6.0,7
37.0,39.0,29.0,27.0,25.0,23.0,30.0,35.0,-143.0,-198.0,1.0,28.0,35.0,48.0,85.0,125.0,7
-10.0,-12.0,-14.0,-15.0,-14.0,-7.0,-4.0,-11.0,-2.0,25.0,-13.0,-12.0,-14.0,-14.0,-24.0,-14.0,7
25.0,24.0,28.0,31.0,32.0,20.0,31.0,23.0,-186.0,-217.0,1.0,21.0,33.0,59.0,95.0,132.0,7
17.0,16.0,17.0,21.0,31.0,5.0,-6.0,5.0,45.0,21.0,20.0,-3.0,-47.0,25.0,21.0,11.0,7
-2.0,-2.0,-3.0,-2.0,-2.0,-5.0,-4.0,-4.0,3.0,-1.0,4.0,6.0,7.0,11.0,5.0,6.0,7
7.0,8.0,6.0,5.0,1.0,7.0,8.0,6.0,65.0,-12.0,-5.0,-1.0,2.0,-21.0,-24.0,-24.0,7
34.0,36.0,31.0,25.0,24.0,11.0,22.0,29.0,141.0,39.0,18.0,27.0,28.0,2.0,-5.0,-69.0,7
35.0,31.0,33.0,37.0,31.0,35.0,34.0,37.0,131.0,35.0,42.0,37.0,37.0,34.0,15.0,-7.0,7
-17.0,-16.0,-15.0,-16.0,-17.0,-18.0,-18.0,-16.0,-5.0,-15.0,-13.0,-11.0,-12.0,-18.0,-17.0,-18.0,7
19.0,19.0,12.0,10.0,11.0,12.0,15.0,21.0,3.0,25.0,16.0,20.0,20.0,27.0,34.0,35.0,7
-3.0,-3.0,-6.0,-3.0,1.0,2.0,8.0,1.0,57.0,47.0,-6.0,-7.0,0.0,13.0,8.0,-13.0,7
44.0,39.0,35.0,36.0,33.0,41.0,41.0,35.0,-32.0,-136.0,12.0,23.0,25.0,18.0,32.0,58.0,7
7.0,11.0,13.0,11.0,11.0,5.0,-6.0,-5.0,16.0,14.0,13.0,12.0,17.0,21.0,19.0,8.0,7
-23.0,-22.0,-23.0,-23.0,-22.0,-20.0,-14.0,-12.0,-22.0,-43.0,-18.0,-19.0,-25.0,-24.0,-12.0,-4.0,7
5.0,9.0,8.0,10.0,7.0,1.0,6.0,2.0,-4.0,7.0,2.0,-5.0,-8.0,-5.0,2.0,0.0,7
13.0,13.0,11.0,8.0,5.0,11.0,15.0,10.0,13.0,-23.0,4.0,3.0,6.0,5.0,2.0,3.0,7
14.0,14.0,16.0,19.0,13.0,6.0,10.0,9.0,-10.0,-6.0,6.0,3.0,10.0,15.0,31.0,19.0,7
-30.0,-32.0,-31.0,-36.0,-43.0,-35.0,-35.0,-26.0,-7.0,-45.0,-20.0,-19.0,-16.0,-19.0,-11.0,-25.0,7
3.0,4.0,5.0,7.0,10.0,9.0,7.0,6.0,-8.0,-10.0,10.0,7.0,6.0,18.0,14.0,12.0,7
116.0,120.0,123.0,119.0,112.0,117.0,112.0,110.0,-382.0,-207.0,62.0,94.0,116.0,160.0,279.0,402.0,7
-12.0,-4.0,-6.0,-7.0,-5.0,-7.0,-13.0,-18.0,-9.0,17.0,-9.0,-10.0,-15.0,-20.0,-6.0,31.0,7
23.0,21.0,21.0,24.0,19.0,32.0,27.0,28.0,107.0,53.0,35.0,33.0,32.0,35.0,26.0,1.0,7
6.0,2.0,0.0,2.0,2.0,11.0,22.0,14.0,23.0,18.0,3.0,6.0,6.0,-13.0,-25.0,-12.0,7
13.0,9.0,3.0,0.0,6.0,12.0,21.0,17.0,29.0,38.0,14.0,15.0,9.0,-6.0,-8.0,9.0,7
4.0,-1.0,0.0,-3.0,0.0,8.0,10.0,9.0,17.0,-9.0,1.0,-1.0,-2.0,-1.0,6.0,2.0,7
-13.0,-12.0,-12.0,-16.0,-15.0,-14.0,-12.0,-12.0,-7.0,-5.0,-8.0,-5.0,-6.0,6.0,8.0,0.0,7
20.0,14.0,16.0,21.0,28.0,38.0,46.0,33.0,-21.0,-140.0,-6.0,6.0,12.0,21.0,44.0,73.0,7
-10.0,-11.0,-10.0,-12.0,-11.0,-9.0,-12.0,-12.0,1.0,-5.0,-12.0,-13.0,-12.0,-16.0,-28.0,-24.0,7
-79.0,-76.0,-65.0,-66.0,-61.0,-52.0,-62.0,-69.0,-58.0,3.0,-79.0,-74.0,-61.0,-65.0,-99.0,-71.0,7
-11.0,-11.0,-13.0,-10.0,-11.0,-15.0,-35.0,-16.0,-30.0,-42.0,-8.0,-8.0,-4.0,17.0,37.0,17.0,7
-6.0,-12.0,-7.0,-4.0,-5.0,-10.0,-14.0,-5.0,-12.0,0.0,-3.0,-1.0,-1.0,4.0,17.0,6.0,7
17.0,18.0,17.0,10.0,12.0,11.0,16.0,17.0,-232.0,-146.0,-3.0,17.0,21.0,30.0,84.0,139.0,7
23.0,20.0,20.0,22.0,21.0,22.0,21.0,21.0,-39.0,-140.0,11.0,25.0,35.0,29.0,34.0,45.0,7
-2.0,3.0,-2.0,-4.0,-7.0,-3.0,0.0,-3.0,-20.0,-39.0,0.0,1.0,0.0,1.0,7.0,0.0,7
3.0,1.0,3.0,0.0,1.0,1.0,-2.0,-5.0,217.0,261.0,26.0,14.0,9.0,-2.0,-37.0,-124.0,7
12.0,11.0,14.0,18.0,20.0,20.0,15.0,12.0,-52.0,-2.0,5.0,1.0,0.0,14.0,19.0,29.0,7
25.0,22.0,22.0,27.0,22.0,27.0,31.0,26.0,-84.0,-175.0,0.0,13.0,19.0,37.0,70.0,102.0,7
21.0,15.0,13.0,17.0,19.0,31.0,34.0,20.0,-75.0,-138.0,8.0,14.0,17.0,13.0,22.0,85.0,7
14.0,10.0,12.0,18.0,10.0,-2.0,8.0,20.0,-86.0,-143.0,1.0,8.0,11.0,13.0,38.0,46.0,7
1.0,1.0,0.0,1.0,3.0,0.0,0.0,2.0,7.0,-7.0,-2.0,-4.0,-5.0,-1.0,0.0,-8.0,7
40.0,39.0,34.0,34.0,34.0,40.0,40.0,40.0,-150.0,-199.0,15.0,32.0,39.0,66.0,113.0,162.0,7
-8.0,-8.0,-10.0,-9.0,-8.0,-5.0,-6.0,-5.0,-25.0,-31.0,-5.0,-3.0,-1.0,1.0,0.0,5.0,7
10.0,5.0,13.0,20.0,25.0,25.0,21.0,13.0,-107.0,-127.0,-4.0,2.0,7.0,16.0,43.0,70.0,7
55.0,51.0,53.0,62.0,67.0,56.0,67.0,55.0,-14.0,-89.0,34.0,31.0,25.0,56.0,66.0,43.0,7
-2.0,-1.0,-1.0,0.0,1.0,-3.0,-4.0,-8.0,-14.0,-6.0,-4.0,-5.0,-6.0,-3.0,-2.0,-12.0,7
6.0,6.0,7.0,14.0,12.0,8.0,8.0,5.0,5.0,13.0,1.0,-3.0,2.0,5.0,6.0,7.0,7
-6.0,-7.0,-3.0,1.0,1.0,2.0,2.0,-6.0,-33.0,-45.0,-9.0,0.0,-1.0,3.0,1.0,14.0,7
-19.0,-19.0,-16.0,-13.0,-15.0,-12.0,-12.0,-18.0,-66.0,-90.0,-9.0,-11.0,-14.0,-4.0,6.0,29.0,7
43.0,48.0,43.0,40.0,42.0,33.0,43.0,40.0,-160.0,-136.0,18.0,36.0,39.0,37.0,66.0,86.0,7
25.0,26.0,26.0,25.0,29.0,33.0,31.0,29.0,25.0,29.0,10.0,9.0,12.0,8.0,10.0,-6.0,7
7.0,5.0,4.0,6.0,2.0,-5.0,9.0,8.0,19.0,9.0,5.0,4.0,3.0,0.0,-6.0,-1.0,7
-27.0,-28.0,-28.0,-27.0,-28.0,-31.0,-13.0,-19.0,101.0,-31.0,-34.0,-23.0,-23.0,-37.0,-37.0,-37.0,7
58.0,58.0,55.0,57.0,49.0,47.0,61.0,56.0,-279.0,-202.0,27.0,43.0,50.0,78.0,149.0,212.0,7
7.0,7.0,2.0,-1.0,0.0,-2.0,-6.0,1.0,-35.0,-19.0,7.0,5.0,8.0,29.0,27.0,14.0,7
38.0,48.0,37.0,42.0,40.0,43.0,41.0,33.0,-4.0,-13.0,23.0,18.0,19.0,8.0,23.0,-3.0,7
12.0,12.0,10.0,11.0,13.0,13.0,21.0,11.0,0.0,15.0,-1.0,-7.0,-9.0,-8.0,-12.0,-9.0,7
-5.0,-13.0,-5.0,-2.0,10.0,20.0,22.0,10.0,373.0,436.0,13.0,-13.0,-22.0,-50.0,-101.0,-225.0,7
-9.0,-7.0,-5.0,-5.0,-6.0,-11.0,-14.0,-12.0,-6.0,-13.0,-1.0,-8.0,-15.0,-3.0,-1.0,4.0,7
32.0,30.0,31.0,29.0,25.0,32.0,15.0,22.0,-116.0,-199.0,8.0,28.0,35.0,37.0,84.0,114.0,7
2.0,0.0,-1.0,1.0,1.0,7.0,14.0,6.0,12.0,13.0,-9.0,-11.0,-14.0,-32.0,-34.0,-24.0,7
22.0,20.0,23.0,24.0,19.0,19.0,17.0,14.0,-165.0,-227.0,4.0,18.0,28.0,36.0,84.0,124.0,7
23.0,23.0,19.0,20.0,21.0,25.0,25.0,18.0,-54.0,-212.0,-4.0,15.0,22.0,23.0,29.0,42.0,7
-61.0,-56.0,-46.0,-42.0,-43.0,-29.0,-47.0,-64.0,-77.0,-41.0,-59.0,-55.0,-62.0,-69.0,-53.0,-7.0,7
0.0,-5.0,-5.0,-4.0,1.0,5.0,8.0,5.0,15.0,-20.0,-5.0,-5.0,-1.0,6.0,5.0,4.0,7
7.0,-23.0,-20.0,-12.0,-24.0,-53.0,-19.0,-6.0,-26.0,-11.0,13.0,-2.0,-10.0,-18.0,-10.0,-7.0,7
-13.0,-17.0,-18.0,-18.0,-16.0,-1.0,-3.0,-2.0,114.0,187.0,1.0,-8.0,-12.0,-56.0,-88.0,-119.0,7
26.0,24.0,24.0,25.0,21.0,15.0,27.0,23.0,-64.0,-130.0,12.0,21.0,25.0,19.0,23.0,45.0,7
-15.0,-13.0,-10.0,-8.0,-11.0,-12.0,-13.0,-17.0,3.0,-1.0,-7.0,-8.0,-8.0,-5.0,-10.0,-14.0,7
16.0,20.0,13.0,19.0,19.0,24.0,26.0,18.0,-396.0,-167.0,17.0,31.0,34.0,40.0,95.0,159.0,7
-7.0,-4.0,-6.0,-5.0,-5.0,-4.0,0.0,-5.0,2.0,8.0,-5.0,-4.0,-3.0,-10.0,-14.0,-11.0,7
5.0,3.0,2.0,3.0,0.0,-12.0,1.0,5.0,-15.0,-11.0,3.0,4.0,3.0,3.0,11.0,13.0,7
-47.0,-47.0,-42.0,-40.0,-44.0,-38.0,-36.0,-40.0,-93.0,-134.0,-39.0,-32.0,-25.0,-24.0,-22.0,3.0,7
-63.0,-58.0,-51.0,-55.0,-58.0,-67.0,-96.0,-76.0,3.0,139.0,-37.0,-51.0,-63.0,-41.0,-73.0,-91.0,7
2.0,1.0,-5.0,-8.0,-11.0,-17.0,-22.0,-2.0,1.0,0.0,-3.0,0.0,5.0,27.0,59.0,23.0,7
41.0,31.0,27.0,20.0,4.0,24.0,23.0,43.0,-115.0,-210.0,12.0,45.0,76.0,74.0,97.0,139.0,7
6.0,6.0,7.0,7.0,8.0,9.0,7.0,3.0,19.0,28.0,9.0,3.0,1.0,-2.0,-2.0,-2.0,7
-9.0,3.0,16.0,24.0,39.0,35.0,5.0,1.0,17.0,52.0,17.0,-8.0,-21.0,10.0,17.0,3.0,7
36.0,32.0,31.0,35.0,35.0,32.0,36.0,31.0,-194.0,-264.0,-4.0,19.0,26.0,49.0,98.0,168.0,7
-4.0,-1.0,-3.0,-7.0,-4.0,-5.0,-9.0,-6.0,11.0,32.0,1.0,3.0,8.0,19.0,22.0,6.0,7
-4.0,-2.0,-6.0,-5.0,-4.0,-4.0,-13.0,-6.0,-1.0,-1.0,-1.0,0.0,2.0,1.0,7.0,4.0,7
17.0,14.0,10.0,14.0,24.0,17.0,25.0,22.0,188.0,105.0,14.0,7.0,-2.0,-32.0,-79.0,-149.0,7
0.0,2.0,0.0,1.0,0.0,-1.0,1.0,-4.0,-3.0,1.0,4.0,0.0,-3.0,-2.0,-12.0,-6.0,7
9.0,8.0,9.0,15.0,22.0,12.0,9.0,8.0,-161.0,-206.0,-8.0,6.0,3.0,26.0,66.0,114.0,7
-8.0,-11.0,-9.0,-7.0,-6.0,-9.0,-9.0,-12.0,8.0,1.0,-10.0,-12.0,-10.0,-7.0,-14.0,-16.0,7
-29.0,-30.0,-30.0,-28.0,-29.0,-27.0,-29.0,-27.0,46.0,-28.0,-21.0,-26.0,-26.0,-33.0,-62.0,-76.0,7
12.0,13.0,11.0,11.0,11.0,9.0,16.0,17.0,-140.0,-222.0,-11.0,7.0,15.0,19.0,55.0,89.0,7
-7.0,2.0,-4.0,-7.0,-6.0,-9.0,-5.0,-8.0,-23.0,-11.0,-13.0,-11.0,-11.0,-20.0,-21.0,-17.0,7
12.0,8.0,5.0,6.0,7.0,15.0,7.0,8.0,-13.0,6.0,-3.0,-3.0,-8.0,-5.0,11.0,10.0,7
-29.0,-31.0,-29.0,-26.0,-30.0,-26.0,-18.0,-24.0,-26.0,-28.0,-23.0,-20.0,-20.0,-36.0,-49.0,-21.0,7
-4.0,-4.0,-2.0,-4.0,-6.0,0.0,1.0,1.0,-107.0,-140.0,0.0,9.0,14.0,17.0,35.0,74.0,7
3.0,1.0,3.0,2.0,0.0,9.0,7.0,6.0,22.0,14.0,6.0,6.0,8.0,3.0,-1.0,5.0,7
-31.0,-32.0,-29.0,-28.0,-28.0,-28.0,-26.0,-25.0,-5.0,-4.0,-19.0,-22.0,-21.0,-24.0,-18.0,-23.0,7
25.0,22.0,17.0,16.0,21.0,46.0,17.0,17.0,-334.0,-192.0,2.0,8.0,11.0,10.0,76.0,174.0,7
-16.0,-8.0,-10.0,-14.0,-17.0,-18.0,-27.0,-18.0,1.0,-7.0,-5.0,-3.0,-1.0,-4.0,-7.0,-12.0,7
7.0,5.0,8.0,5.0,2.0,-2.0,7.0,8.0,16.0,7.0,6.0,-1.0,-6.0,-20.0,-29.0,-12.0,7
33.0,32.0,33.0,39.0,41.0,38.0,38.0,32.0,-81.0,-184.0,2.0,23.0,33.0,50.0,68.0,92.0,7
13.0,14.0,13.0,15.0,19.0,20.0,13.0,7.0,-1.0,-1.0,6.0,6.0,7.0,7.0,-4.0,3.0,7
-1.0,0.0,2.0,4.0,1.0,1.0,-2.0,0.0,11.0,21.0,6.0,8.0,12.0,8.0,11.0,3.0,7
111.0,101.0,112.0,106.0,112.0,99.0,108.0,111.0,-465.0,-291.0,93.0,108.0,118.0,147.0,281.0,443.0,7
-17.0,-14.0,-17.0,-21.0,-22.0,-22.0,-22.0,-15.0,-14.0,28.0,-20.0,-22.0,-25.0,-20.0,-21.0,-16.0,7
-25.0,-26.0,-18.0,-12.0,-12.0,-8.0,-18.0,-12.0,8.0,-95.0,-17.0,-15.0,-8.0,8.0,3.0,-7.0,7
19.0,19.0,20.0,19.0,20.0,13.0,15.0,18.0,27.0,-13.0,14.0,18.0,21.0,21.0,10.0,17.0,7
-6.0,-4.0,-4.0,-6.0,-10.0,-16.0,-12.0,-8.0,9.0,21.0,-3.0,-3.0,-4.0,-10.0,-13.0,-10.0,7
-4.0,-3.0,-3.0,-2.0,-4.0,-14.0,-10.0,-4.0,13.0,-1.0,-1.0,0.0,2.0,4.0,4.0,-1.0,7
-1.0,-1.0,-3.0,-1.0,-2.0,0.0,0.0,-2.0,-3.0,1.0,-1.0,-1.0,-1.0,0.0,-2.0,-3.0,7
18.0,20.0,20.0,21.0,26.0,34.0,25.0,18.0,100.0,-46.0,3.0,22.0,20.0,-4.0,-11.0,-43.0,7
-35.0,-28.0,-27.0,-30.0,-30.0,-26.0,-35.0,-32.0,-12.0,-21.0,-20.0,-21.0,-20.0,-15.0,-25.0,-18.0,7
6.0,6.0,6.0,2.0,3.0,-8.0,3.0,4.0,3.0,-1.0,5.0,7.0,5.0,0.0,2.0,4.0,7
5.0,7.0,6.0,6.0,5.0,4.0,7.0,3.0,-32.0,-43.0,3.0,3.0,5.0,6.0,1.0,14.0,7
83.0,97.0,102.0,58.0,65.0,106.0,60.0,44.0,-350.0,12.0,26.0,35.0,47.0,42.0,54.0,45.0,7
1.0,1.0,-3.0,-3.0,-4.0,-5.0,0.0,8.0,-17.0,-12.0,-3.0,-6.0,-15.0,8.0,15.0,13.0,7
0.0,-7.0,-12.0,-7.0,-7.0,-11.0,17.0,14.0,4.0,3.0,1.0,1.0,-8.0,-18.0,-5.0,1.0,7
-8.0,-8.0,-7.0,-6.0,-10.0,-11.0,-9.0,-8.0,-10.0,-1.0,-4.0,-4.0,-8.0,-13.0,-8.0,2.0,7
-4.0,-3.0,-1.0,-1.0,-6.0,-8.0,-10.0,-3.0,4.0,-6.0,-1.0,0.0,-1.0,4.0,12.0,3.0,7
46.0,44.0,41.0,38.0,32.0,36.0,41.0,39.0,-110.0,-184.0,18.0,31.0,43.0,52.0,89.0,106.0,7
5.0,9.0,3.0,2.0,6.0,7.0,9.0,5.0,1.0,-4.0,3.0,5.0,4.0,8.0,-1.0,-4.0,7
17.0,17.0,15.0,12.0,17.0,17.0,21.0,21.0,17.0,3.0,7.0,0.0,-8.0,-14.0,-12.0,-12.0,7
14.0,13.0,13.0,15.0,8.0,12.0,17.0,17.0,98.0,43.0,27.0,24.0,23.0,29.0,22.0,-12.0,7
2.0,4.0,3.0,1.0,1.0,-1.0,-2.0,1.0,2.0,9.0,9.0,8.0,8.0,11.0,19.0,20.0,7
-34.0,-34.0,-37.0,-50.0,-37.0,-27.0,-33.0,-37.0,4.0,24.0,-32.0,-35.0,-40.0,-45.0,-57.0,-50.0,7
25.0,25.0,23.0,25.0,21.0,21.0,23.0,19.0,-168.0,-214.0,0.0,16.0,27.0,34.0,82.0,112.0,7
-7.0,-6.0,-9.0,-11.0,-10.0,-8.0,-6.0,-5.0,-7.0,0.0,-1.0,-5.0,-3.0,0.0,-4.0,3.0,7
15.0,12.0,8.0,7.0,2.0,5.0,2.0,3.0,3.0,-92.0,9.0,17.0,24.0,13.0,25.0,35.0,7
47.0,51.0,47.0,44.0,40.0,42.0,47.0,46.0,-256.0,-160.0,34.0,50.0,50.0,72.0,126.0,162.0,7
23.0,21.0,20.0,22.0,22.0,22.0,22.0,25.0,19.0,13.0,16.0,15.0,20.0,23.0,35.0,33.0,7
36.0,39.0,39.0,35.0,34.0,43.0,41.0,35.0,-300.0,-239.0,8.0,33.0,40.0,63.0,144.0,211.0,7
41.0,41.0,37.0,35.0,29.0,31.0,32.0,34.0,-113.0,-187.0,16.0,31.0,41.0,51.0,89.0,104.0,7
-2.0,0.0,1.0,3.0,1.0,-3.0,-12.0,-4.0,10.0,19.0,3.0,3.0,10.0,29.0,30.0,11.0,7
-35.0,-30.0,-28.0,-29.0,-25.0,-24.0,-33.0,-39.0,315.0,333.0,-3.0,-12.0,-21.0,-82.0,-183.0,-283.0,7
-14.0,-12.0,-16.0,-16.0,-14.0,-12.0,-14.0,-21.0,-32.0,-39.0,-12.0,-11.0,-18.0,-29.0,-26.0,-12.0,7
5.0,4.0,5.0,6.0,5.0,8.0,9.0,5.0,22.0,11.0,-2.0,-4.0,0.0,8.0,12.0,-1.0,7
8.0,11.0,10.0,12.0,9.0,3.0,8.0,7.0,-33.0,-51.0,-19.0,0.0,1.0,-2.0,-2.0,-13.0,7
47.0,38.0,34.0,37.0,41.0,44.0,58.0,45.0,-128.0,-219.0,10.0,23.0,29.0,29.0,59.0,116.0,7
-4.0,-3.0,0.0,2.0,1.0,-2.0,2.0,-2.0,-5.0,-17.0,-2.0,-2.0,-5.0,-14.0,-11.0,-4.0,7
-6.0,-7.0,-5.0,-7.0,-10.0,-8.0,-2.0,-2.0,7.0,-14.0,-2.0,-2.0,-3.0,-1.0,0.0,0.0,7
19.0,21.0,21.0,21.0,21.0,12.0,15.0,14.0,19.0,18.0,14.0,14.0,18.0,20.0,20.0,10.0,7
-15.0,-17.0,-16.0,-12.0,-18.0,-24.0,-24.0,-16.0,-6.0,-2.0,-6.0,-8.0,-9.0,-7.0,-10.0,-8.0,7
-6.0,-7.0,-10.0,-9.0,-5.0,-2.0,0.0,-3.0,9.0,0.0,-4.0,-6.0,-10.0,-7.0,-11.0,-11.0,7
-10.0,-17.0,-17.0,-16.0,-14.0,-12.0,8.0,4.0,-4.0,-8.0,-7.0,-5.0,-3.0,-5.0,-5.0,-6.0,7
32.0,32.0,33.0,31.0,24.0,26.0,27.0,28.0,-69.0,-105.0,15.0,17.0,23.0,23.0,39.0,50.0,7
21.0,4.0,-36.0,7.0,22.0,41.0,23.0,6.0,-99.0,-40.0,1.0,6.0,17.0,7.0,3.0,9.0,7
-9.0,-8.0,-9.0,-14.0,-15.0,-10.0,-7.0,-9.0,187.0,227.0,15.0,11.0,12.0,-19.0,-42.0,-108.0,7
-41.0,-50.0,-56.0,-58.0,-52.0,-50.0,-31.0,-33.0,-41.0,-16.0,-55.0,-54.0,-62.0,-59.0,-49.0,-7.0,7
-3.0,7.0,2.0,-12.0,-20.0,-29.0,-22.0,-9.0,-1.0,104.0,-1.0,-8.0,-11.0,-1.0,-14.0,-19.0,7
10.0,11.0,11.0,10.0,9.0,9.0,11.0,7.0,2.0,-4.0,6.0,2.0,1.0,5.0,-2.0,-1.0,7
-12.0,-14.0,-15.0,-17.0,-20.0,-13.0,-17.0,-10.0,92.0,-3.0,0.0,-4.0,-5.0,-8.0,-37.0,-58.0,7
36.0,34.0,31.0,32.0,25.0,31.0,42.0,31.0,-133.0,-244.0,9.0,39.0,54.0,45.0,59.0,100.0,7
30.0,29.0,27.0,25.0,22.0,26.0,21.0,28.0,25.0,-25.0,19.0,21.0,23.0,27.0,56.0,36.0,7
-4.0,-6.0,3.0,12.0,22.0,1.0,6.0,-4.0,-72.0,-87.0,-7.0,-10.0,-3.0,5.0,-2.0,12.0,7
-103.0,-118.0,-118.0,-115.0,-106.0,-95.0,-107.0,-99.0,-90.0,8.0,-100.0,-100.0,-112.0,-96.0,-102.0,-80.0,7
41.0,41.0,37.0,34.0,37.0,41.0,39.0,38.0,407.0,344.0,46.0,32.0,29.0,-8.0,-75.0,-225.0,7
-9.0,-10.0,-12.0,-10.0,-7.0,-4.0,-11.0,-7.0,-6.0,-30.0,-5.0,-5.0,-7.0,-2.0,-5.0,-2.0,7
25.0,19.0,18.0,9.0,2.0,-13.0,6.0,14.0,-103.0,-27.0,4.0,5.0,9.0,9.0,15.0,32.0,7
18.0,14.0,13.0,14.0,15.0,17.0,21.0,21.0,5.0,10.0,11.0,10.0,14.0,18.0,21.0,17.0,7
-14.0,-14.0,-9.0,-6.0,-2.0,-6.0,-8.0,-11.0,-23.0,-13.0,-7.0,-11.0,-18.0,-21.0,-24.0,-7.0,7
12.0,14.0,16.0,15.0,12.0,15.0,9.0,7.0,95.0,96.0,12.0,21.0,23.0,13.0,10.0,-26.0,7
70.0,68.0,64.0,61.0,59.0,58.0,67.0,69.0,-122.0,-186.0,62.0,72.0,75.0,97.0,134.0,143.0,7
5.0,5.0,4.0,4.0,1.0,11.0,5.0,5.0,5.0,4.0,4.0,2.0,-3.0,1.0,7.0,6.0,7
1.0,0.0,0.0,-2.0,1.0,2.0,2.0,3.0,-4.0,11.0,4.0,1.0,5.0,6.0,9.0,9.0,7
-3.0,-5.0,-7.0,-8.0,-9.0,-10.0,-8.0,-2.0,-91.0,-142.0,-10.0,7.0,19.0,28.0,48.0,54.0,7
66.0,66.0,65.0,66.0,58.0,50.0,68.0,68.0,-221.0,-144.0,46.0,56.0,63.0,94.0,155.0,206.0,7
13.0,13.0,9.0,8.0,12.0,25.0,19.0,12.0,-10.0,-45.0,8.0,10.0,7.0,5.0,10.0,5.0,7
30.0,32.0,33.0,37.0,37.0,31.0,19.0,18.0,41.0,-92.0,24.0,44.0,52.0,70.0,63.0,44.0,7
10.0,13.0,13.0,14.0,11.0,9.0,12.0,10.0,-3.0,0.0,5.0,2.0,2.0,4.0,6.0,3.0,7
-12.0,-11.0,-12.0,-13.0,-14.0,-12.0,-6.0,-8.0,-4.0,-7.0,-4.0,-4.0,-8.0,-4.0,-1.0,0.0,7
-9.0,-14.0,-10.0,-8.0,-12.0,-14.0,-27.0,-14.0,-9.0,-33.0,-19.0,-13.0,-14.0,-12.0,0.0,-8.0,7
-90.0,-89.0,-89.0,-90.0,-87.0,-103.0,-108.0,-86.0,-55.0,52.0,-65.0,-65.0,-74.0,-52.0,-82.0,-70.0,7
9.0,9.0,9.0,9.0,8.0,7.0,4.0,4.0,-5.0,5.0,3.0,-4.0,-4.0,-8.0,-13.0,-10.0,7
17.0,23.0,23.0,21.0,21.0,17.0,8.0,14.0,79.0,80.0,16.0,8.0,7.0,6.0,-13.0,-27.0,7
-10.0,-8.0,-7.0,-8.0,-8.0,-4.0,-2.0,-9.0,2.0,0.0,-5.0,-3.0,-5.0,-2.0,1.0,5.0,7
-23.0,-20.0,-12.0,-7.0,-14.0,-20.0,-28.0,-30.0,-15.0,-134.0,-19.0,10.0,15.0,13.0,28.0,13.0,7
-7.0,-9.0,-8.0,-7.0,-7.0,-2.0,5.0,1.0,-34.0,-43.0,-8.0,-6.0,-10.0,-17.0,-16.0,-3.0,7
21.0,21.0,27.0,33.0,37.0,38.0,37.0,23.0,221.0,138.0,15.0,18.0,10.0,-32.0,-88.0,-150.0,7
-17.0,-17.0,-15.0,-12.0,-17.0,-16.0,-10.0,-13.0,-135.0,-167.0,-15.0,-6.0,-5.0,5.0,43.0,77.0,7
8.0,8.0,7.0,9.0,3.0,0.0,1.0,3.0,-57.0,-213.0,-3.0,19.0,29.0,29.0,40.0,53.0,7
21.0,21.0,17.0,10.0,11.0,14.0,10.0,15.0,-27.0,-9.0,18.0,14.0,17.0,34.0,40.0,24.0,7
8.0,8.0,7.0,9.0,14.0,6.0,2.0,2.0,-210.0,-235.0,-7.0,4.0,-6.0,9.0,49.0,110.0,7
-11.0,-8.0,-8.0,-8.0,-5.0,-7.0,-10.0,-14.0,-25.0,-19.0,-5.0,-5.0,-8.0,-16.0,-21.0,-8.0,7
57.0,56.0,55.0,54.0,50.0,51.0,53.0,53.0,69.0,-8.0,34.0,46.0,48.0,54.0,72.0,98.0,7
-16.0,-31.0,-18.0,-14.0,-14.0,-12.0,-14.0,-12.0,-23.0,29.0,-6.0,-6.0,-5.0,0.0,0.0,3.0,7
32.0,31.0,31.0,33.0,31.0,30.0,29.0,27.0,-30.0,-132.0,20.0,32.0,42.0,40.0,54.0,51.0,7
7.0,9.0,4.0,-3.0,-7.0,-8.0,-3.0,2.0,396.0,346.0,32.0,17.0,10.0,-32.0,-93.0,-243.0,7
17.0,31.0,26.0,21.0,20.0,20.0,19.0,14.0,-457.0,-82.0,16.0,12.0,13.0,7.0,43.0,97.0,7
-1.0,-1.0,0.0,4.0,18.0,12.0,4.0,3.0,93.0,-6.0,-6.0,-12.0,-25.0,-4.0,-3.0,-3.0,7
-8.0,-11.0,-13.0,-13.0,-14.0,-16.0,-10.0,-8.0,-33.0,-43.0,-8.0,-5.0,-7.0,-4.0,1.0,8.0,7
17.0,17.0,17.0,19.0,23.0,15.0,21.0,17.0,-106.0,-195.0,-12.0,22.0,23.0,12.0,31.0,64.0,7
28.0,25.0,24.0,26.0,21.0,23.0,27.0,25.0,-136.0,-220.0,-2.0,17.0,27.0,25.0,60.0,90.0,7
-8.0,-8.0,-7.0,-5.0,-6.0,-10.0,-11.0,-8.0,-11.0,4.0,-4.0,-6.0,-7.0,-1.0,0.0,0.0,7
3.0,7.0,5.0,5.0,-1.0,-2.0,-4.0,0.0,-7.0,-1.0,8.0,5.0,6.0,5.0,10.0,8.0,7
-4.0,-6.0,-9.0,-10.0,-12.0,-11.0,-3.0,-4.0,6.0,-18.0,-8.0,-8.0,-8.0,-24.0,-30.0,-14.0,7
-9.0,-10.0,-12.0,-13.0,-13.0,-11.0,-10.0,-5.0,-23.0,-26.0,-4.0,-3.0,-6.0,-7.0,-2.0,5.0,7
4.0,1.0,1.0,3.0,9.0,9.0,16.0,14.0,4.0,14.0,2.0,-4.0,-11.0,2.0,4.0,8.0,7
3.0,0.0,1.0,3.0,3.0,4.0,8.0,6.0,3.0,-1.0,3.0,3.0,3.0,7.0,16.0,8.0,7
15.0,12.0,9.0,8.0,8.0,20.0,11.0,12.0,23.0,16.0,15.0,11.0,5.0,-2.0,8.0,10.0,7
-7.0,-8.0,-9.0,-11.0,-8.0,-4.0,-7.0,-7.0,-5.0,-5.0,-4.0,-5.0,-6.0,-5.0,-3.0,-2.0,7
2.0,4.0,3.0,2.0,-2.0,-8.0,-8.0,-2.0,23.0,21.0,4.0,5.0,7.0,9.0,3.0,3.0,7
-70.0,-63.0,-62.0,-65.0,-64.0,-66.0,-79.0,-66.0,213.0,361.0,-24.0,-57.0,-63.0,-59.0,-134.0,-197.0,7
-6.0,1.0,1.0,0.0,0.0,8.0,11.0,0.0,-33.0,3.0,0.0,-2.0,-5.0,-17.0,-22.0,-5.0,7
10.0,10.0,16.0,22.0,20.0,14.0,8.0,8.0,3.0,-20.0,11.0,9.0,5.0,27.0,31.0,25.0,7
0.0,5.0,12.0,10.0,8.0,2.0,2.0,-4.0,-52.0,-36.0,-17.0,-13.0,-17.0,-9.0,12.0,55.0,7
5.0,5.0,3.0,-1.0,2.0,3.0,8.0,5.0,4.0,16.0,1.0,0.0,0.0,0.0,0.0,3.0,7
5.0,8.0,12.0,14.0,14.0,-2.0,1.0,1.0,32.0,-5.0,15.0,10.0,10.0,8.0,-4.0,-14.0,7
26.0,24.0,23.0,23.0,27.0,16.0,24.0,26.0,246.0,197.0,33.0,27.0,33.0,19.0,-28.0,-165.0,7
-15.0,-14.0,-13.0,-14.0,-16.0,-12.0,-6.0,-11.0,-3.0,-3.0,-17.0,-15.0,-19.0,-40.0,-39.0,-27.0,7
15.0,17.0,14.0,12.0,6.0,13.0,20.0,11.0,-165.0,-203.0,0.0,17.0,25.0,21.0,66.0,114.0,7
1.0,1.0,3.0,1.0,2.0,3.0,3.0,-1.0,10.0,0.0,-1.0,-3.0,-6.0,-10.0,-10.0,-4.0,7
-11.0,-10.0,-10.0,-10.0,-13.0,-15.0,-22.0,-12.0,-7.0,1.0,-7.0,-4.0,-1.0,2.0,4.0,-1.0,7
8.0,-2.0,0.0,-4.0,-2.0,11.0,21.0,20.0,9.0,11.0,0.0,1.0,10.0,-8.0,-9.0,-4.0,7
-10.0,-8.0,-5.0,-1.0,-5.0,-6.0,-5.0,-8.0,-3.0,-2.0,-7.0,-10.0,-11.0,-16.0,-18.0,-5.0,7
20.0,23.0,21.0,21.0,23.0,19.0,21.0,17.0,10.0,13.0,7.0,0.0,-8.0,-4.0,-5.0,1.0,7
-1.0,-1.0,-1.0,-1.0,0.0,-1.0,-3.0,-2.0,0.0,6.0,0.0,1.0,1.0,4.0,1.0,2.0,7
52.0,49.0,51.0,52.0,46.0,54.0,48.0,47.0,-152.0,-142.0,38.0,41.0,42.0,51.0,91.0,101.0,7
10.0,11.0,12.0,16.0,18.0,14.0,3.0,4.0,-54.0,-1.0,8.0,5.0,3.0,19.0,21.0,36.0,7
-34.0,-33.0,-28.0,-25.0,-25.0,-28.0,-21.0,-19.0,-14.0,-18.0,-19.0,-17.0,-22.0,-21.0,-22.0,-18.0,7
-4.0,-6.0,-7.0,-8.0,-8.0,-4.0,-4.0,-5.0,-8.0,-20.0,-14.0,-1.0,-1.0,-3.0,-4.0,-11.0,7
-1.0,-1.0,-2.0,-1.0,-4.0,7.0,8.0,-1.0,12.0,10.0,-6.0,-11.0,-20.0,-26.0,-24.0,-27.0,7
-35.0,-35.0,-34.0,-35.0,-33.0,-42.0,-40.0,-37.0,0.0,27.0,-32.0,-34.0,-39.0,-47.0,-62.0,-54.0,7
27.0,29.0,23.0,21.0,18.0,14.0,12.0,20.0,13.0,-4.0,21.0,19.0,22.0,27.0,29.0,31.0,7
14.0,13.0,12.0,11.0,13.0,12.0,5.0,12.0,2.0,12.0,10.0,8.0,12.0,20.0,20.0,16.0,7
17.0,15.0,16.0,17.0,16.0,15.0,17.0,18.0,27.0,37.0,12.0,13.0,10.0,17.0,18.0,10.0,7
-6.0,-2.0,-8.0,-11.0,-11.0,-13.0,-10.0,-6.0,7.0,6.0,-3.0,-4.0,-4.0,-6.0,-5.0,-2.0,7
-5.0,-3.0,-3.0,-4.0,-6.0,-6.0,-13.0,-6.0,-12.0,-12.0,-1.0,0.0,0.0,6.0,1.0,-3.0,7
29.0,19.0,20.0,22.0,21.0,27.0,35.0,25.0,17.0,-117.0,9.0,23.0,29.0,26.0,21.0,21.0,7
12.0,12.0,19.0,12.0,14.0,14.0,8.0,10.0,-426.0,-26.0,17.0,7.0,10.0,5.0,25.0,53.0,7
27.0,27.0,25.0,22.0,23.0,22.0,19.0,20.0,0.0,4.0,18.0,19.0,16.0,11.0,11.0,17.0,7
11.0,13.0,8.0,7.0,5.0,5.0,5.0,5.0,19.0,9.0,14.0,13.0,11.0,7.0,4.0,13.0,7
-3.0,-5.0,-10.0,-10.0,-10.0,-9.0,0.0,-1.0,13.0,18.0,-4.0,-3.0,-6.0,-8.0,-12.0,-6.0,7
-19.0,-17.0,-18.0,-19.0,-22.0,-27.0,-28.0,-20.0,-29.0,-24.0,-12.0,-8.0,-8.0,6.0,12.0,-1.0,7
12.0,-10.0,2.0,11.0,7.0,10.0,15.0,14.0,16.0,-53.0,-9.0,10.0,12.0,10.0,28.0,55.0,7
48.0,50.0,48.0,50.0,46.0,41.0,36.0,39.0,-117.0,-201.0,18.0,38.0,48.0,48.0,76.0,112.0,7
25.0,27.0,27.0,29.0,32.0,22.0,18.0,19.0,26.0,-9.0,23.0,17.0,15.0,32.0,17.0,14.0,7
-8.0,-8.0,-11.0,-15.0,-12.0,-9.0,-5.0,-6.0,-13.0,-7.0,-6.0,-5.0,-4.0,-6.0,0.0,25.0,7
10.0,9.0,19.0,14.0,14.0,18.0,18.0,16.0,-265.0,-185.0,-4.0,12.0,17.0,15.0,77.0,177.0,7
-13.0,-12.0,-8.0,-9.0,-11.0,-9.0,6.0,3.0,7.0,-39.0,-8.0,-7.0,-7.0,-10.0,-2.0,14.0,7
34.0,31.0,32.0,36.0,35.0,35.0,35.0,35.0,31.0,-101.0,21.0,33.0,39.0,43.0,59.0,54.0,7
21.0,17.0,15.0,14.0,15.0,20.0,32.0,24.0,-148.0,-206.0,-7.0,15.0,18.0,16.0,28.0,92.0,7
-16.0,-16.0,-18.0,-20.0,-18.0,-15.0,-13.0,-13.0,-1.0,-16.0,-11.0,-11.0,-19.0,-18.0,-18.0,-10.0,7
-3.0,-3.0,-4.0,-5.0,-6.0,-6.0,-8.0,-6.0,10.0,7.0,-3.0,-4.0,-3.0,-2.0,-8.0,-11.0,7
-3.0,-3.0,0.0,6.0,28.0,-8.0,-18.0,-15.0,68.0,72.0,-7.0,-13.0,-51.0,-11.0,-20.0,-30.0,7
2.0,4.0,1.0,0.0,-2.0,-4.0,-5.0,-5.0,-28.0,-49.0,2.0,1.0,2.0,7.0,3.0,19.0,7
10.0,10.0,8.0,4.0,7.0,8.0,6.0,8.0,5.0,9.0,6.0,7.0,6.0,7.0,8.0,5.0,7
19.0,17.0,15.0,12.0,13.0,9.0,21.0,20.0,18.0,10.0,4.0,2.0,0.0,-3.0,-4.0,0.0,7
3.0,2.0,-3.0,-4.0,-6.0,-5.0,3.0,3.0,-59.0,-157.0,-13.0,0.0,9.0,21.0,38.0,51.0,7
-11.0,-9.0,-6.0,-3.0,-3.0,-3.0,-7.0,-11.0,6.0,-2.0,-6.0,-7.0,-7.0,-7.0,-15.0,-15.0,7
-1.0,-4.0,-5.0,-6.0,-8.0,2.0,21.0,15.0,-57.0,-91.0,-6.0,-8.0,-12.0,-12.0,3.0,25.0,7
18.0,18.0,23.0,27.0,29.0,21.0,19.0,17.0,-58.0,-93.0,8.0,15.0,17.0,27.0,35.0,51.0,7
38.0,40.0,38.0,39.0,40.0,49.0,44.0,37.0,-164.0,-224.0,7.0,27.0,37.0,60.0,116.0,171.0,7
-6.0,-6.0,-8.0,-10.0,-7.0,1.0,3.0,-2.0,331.0,292.0,25.0,13.0,14.0,-26.0,-102.0,-232.0,7
-4.0,-3.0,-2.0,-2.0,-3.0,-1.0,0.0,-2.0,15.0,-15.0,1.0,2.0,0.0,6.0,7.0,-6.0,7
28.0,16.0,-9.0,14.0,-4.0,-43.0,5.0,17.0,-44.0,10.0,24.0,6.0,4.0,14.0,19.0,20.0,7
12.0,10.0,9.0,10.0,13.0,16.0,9.0,9.0,-1.0,-6.0,5.0,4.0,3.0,3.0,6.0,6.0,7
34.0,32.0,33.0,32.0,25.0,32.0,37.0,29.0,-48.0,-132.0,16.0,29.0,39.0,34.0,40.0,49.0,7
21.0,6.0,-32.0,10.0,12.0,18.0,10.0,10.0,-380.0,-131.0,32.0,19.0,18.0,19.0,65.0,126.0,7
-47.0,-45.0,-44.0,-48.0,-58.0,-49.0,-41.0,-31.0,131.0,385.0,-1.0,-29.0,-23.0,-79.0,-157.0,-223.0,7
17.0,11.0,11.0,12.0,13.0,23.0,31.0,24.0,-105.0,-172.0,-12.0,1.0,9.0,18.0,62.0,96.0,7
-11.0,-11.0,-14.0,-13.0,-16.0,-14.0,-15.0,-14.0,-49.0,-2.0,-8.0,-9.0,-13.0,-21.0,-16.0,-3.0,7
26.0,23.0,10.0,22.0,38.0,69.0,41.0,25.0,-196.0,-102.0,17.0,18.0,17.0,6.0,49.0,91.0,7
-10.0,-10.0,-11.0,-12.0,-11.0,-13.0,-19.0,-13.0,-19.0,-82.0,-2.0,3.0,4.0,21.0,38.0,35.0,7
18.0,14.0,11.0,15.0,8.0,6.0,20.0,20.0,-177.0,-241.0,-7.0,10.0,14.0,28.0,68.0,111.0,7
-10.0,-8.0,-8.0,-6.0,-7.0,-12.0,-21.0,-13.0,-1.0,-1.0,-6.0,-8.0,-4.0,2.0,2.0,0.0,7
-9.0,-9.0,-10.0,-9.0,-9.0,-10.0,-22.0,-11.0,0.0,25.0,-2.0,-3.0,1.0,12.0,21.0,3.0,7
-10.0,-9.0,-8.0,-3.0,-11.0,-26.0,-14.0,-10.0,-23.0,-62.0,-8.0,-7.0,-7.0,-3.0,-1.0,-5.0,7
-40.0,-38.0,-35.0,-39.0,-41.0,-41.0,-23.0,-27.0,233.0,354.0,-1.0,-27.0,-43.0,-73.0,-121.0,-202.0,7
-6.0,-5.0,-7.0,-6.0,-9.0,-13.0,-12.0,-7.0,-2.0,4.0,-2.0,-1.0,-7.0,2.0,9.0,6.0,7
