0,1,2,3,4,5,6,7,8,9,10,11,12,13,14,15,16
14.0,15.0,14.0,15.0,21.0,27.0,4.0,10.0,-14.0,149.0,2.0,11.0,9.0,6.0,11.0,9.0,8
-13.0,-16.0,-21.0,-28.0,-22.0,-3.0,-32.0,-33.0,70.0,341.0,3.0,-25.0,-30.0,-21.0,-34.0,-32.0,8
-11.0,11.0,6.0,6.0,-3.0,-32.0,-27.0,-7.0,7.0,-28.0,5.0,3.0,4.0,14.0,19.0,3.0,8
17.0,14.0,12.0,8.0,4.0,-13.0,1.0,6.0,5.0,29.0,-3.0,-4.0,-3.0,-5.0,-9.0,-11.0,8
-20.0,-9.0,-10.0,-11.0,-14.0,-19.0,-18.0,-20.0,3.0,-191.0,-2.0,-12.0,-13.0,-11.0,-26.0,-13.0,8
19.0,21.0,23.0,25.0,24.0,46.0,31.0,33.0,-18.0,-116.0,15.0,25.0,38.0,32.0,45.0,50.0,8
-9.0,-9.0,0.0,2.0,0.0,-7.0,-3.0,0.0,8.0,3.0,1.0,3.0,5.0,5.0,8.0,13.0,8
-15.0,-18.0,-12.0,-8.0,-9.0,1.0,-3.0,-7.0,10.0,-147.0,5.0,-7.0,-8.0,-12.0,-18.0,-10.0,8
-33.0,-9.0,-6.0,-9.0,-13.0,-9.0,-9.0,-22.0,-20.0,70.0,-7.0,-7.0,-10.0,-25.0,-43.0,-25.0,8
-11.0,-4.0,-2.0,-1.0,11.0,36.0,8.0,-16.0,-7.0,83.0,-10.0,-1.0,4.0,9.0,1.0,0.0,8
22.0,-2.0,-23.0,-27.0,-20.0,-16.0,-19.0,-14.0,44.0,654.0,3.0,-5.0,-7.0,3.0,-40.0,-81.0,8
31.0,48.0,47.0,43.0,38.0,33.0,35.0,38.0,-86.0,-260.0,29.0,41.0,44.0,49.0,76.0,99.0,8
-10.0,0.0,4.0,11.0,14.0,29.0,13.0,21.0,-18.0,-312.0,13.0,20.0,30.0,35.0,51.0,56.0,8
-47.0,-54.0,-56.0,-68.0,-80.0,-105.0,-85.0,-67.0,-25.0,316.0,-43.0,-60.0,-64.0,-53.0,-100.0,-80.0,8
-14.0,7.0,5.0,4.0,5.0,13.0,9.0,5.0,-10.0,-48.0,4.0,3.0,6.0,16.0,20.0,6.0,8
21.0,19.0,17.0,20.0,18.0,10.0,12.0,17.0,-17.0,-57.0,1.0,8.0,17.0,17.0,24.0,-5.0,8
1.0,3.0,-1.0,-1.0,-14.0,-25.0,-21.0,-8.0,-6.0,14.0,-3.0,3.0,11.0,7.0,13.0,3.0,8
60.0,8.0,5.0,2.0,-2.0,-1.0,0.0,10.0,2.0,63.0,7.0,6.0,9.0,18.0,33.0,19.0,8
-28.0,-5.0,-2.0,3.0,-7.0,-44.0,-21.0,-11.0,-58.0,-150.0,-23.0,-7.0,-10.0,-31.0,-9.0,3.0,8
-13.0,-20.0,-16.0,-12.0,-14.0,-14.0,-28.0,-37.0,55.0,-174.0,0.0,-24.0,-16.0,-19.0,-10.0,1.0,8
38.0,50.0,32.0,31.0,34.0,52.0,52.0,42.0,-22.0,-180.0,14.0,19.0,22.0,17.0,5.0,27.0,8
23.0,15.0,19.0,27.0,30.0,25.0,21.0,17.0,14.0,-11.0,11.0,14.0,9.0,20.0,16.0,13.0,8
-39.0,-20.0,-12.0,-12.0,-19.0,-29.0,-28.0,-12.0,-12.0,-41.0,-9.0,-8.0,-2.0,14.0,17.0,-12.0,8
-15.0,-7.0,-4.0,-5.0,-2.0,-4.0,-10.0,-5.0,-4.0,-24.0,0.0,0.0,2.0,10.0,5.0,0.0,8
6.0,11.0,13.0,17.0,15.0,31.0,3.0,8.0,5.0,-70.0,8.0,11.0,15.0,31.0,38.0,30.0,8
-58.0,-57.0,-65.0,-70.0,-65.0,-57.0,-67.0,-52.0,-33.0,139.0,-53.0,-53.0,-51.0,-25.0,-11.0,-12.0,8
22.0,24.0,23.0,25.0,22.0,4.0,15.0,19.0,-50.0,-27.0,3.0,17.0,19.0,32.0,24.0,32.0,8
8.0,9.0,15.0,16.0,16.0,5.0,10.0,16.0,-66.0,-151.0,19.0,22.0,26.0,25.0,27.0,36.0,8
21.0,18.0,0.0,0.0,19.0,44.0,23.0,12.0,-3.0,46.0,7.0,4.0,-2.0,-8.0,-4.0,0.0,8
25.0,9.0,11.0,16.0,21.0,31.0,14.0,6.0,49.0,-47.0,8.0,1.0,2.0,5.0,4.0,7.0,8
-16.0,-19.0,-11.0,-12.0,-23.0,-47.0,-15.0,-12.0,-14.0,-72.0,-5.0,-3.0,-5.0,-5.0,-5.0,-3.0,8
17.0,13.0,9.0,6.0,4.0,-5.0,14.0,15.0,5.0,62.0,-5.0,-2.0,1.0,5.0,0.0,1.0,8
-10.0,-24.0,-23.0,-17.0,-21.0,-27.0,-16.0,-15.0,-47.0,-358.0,-1.0,-17.0,-23.0,-47.0,-52.0,-37.0,8
28.0,6.0,2.0,7.0,20.0,30.0,20.0,17.0,15.0,-17.0,7.0,9.0,4.0,21.0,29.0,28.0,8
-1.0,-2.0,-9.0,-13.0,-18.0,-32.0,-20.0,-11.0,-25.0,51.0,-11.0,-6.0,-9.0,-6.0,-12.0,-5.0,8
9.0,10.0,8.0,5.0,-6.0,-38.0,-7.0,3.0,2.0,-78.0,4.0,1.0,7.0,14.0,12.0,15.0,8
-17.0,-15.0,-10.0,-9.0,-12.0,-14.0,-13.0,-15.0,11.0,-182.0,2.0,-5.0,-3.0,3.0,-3.0,-1.0,8
-22.0,-30.0,-23.0,-23.0,-10.0,-1.0,-10.0,-18.0,1.0,8.0,-13.0,-4.0,11.0,-18.0,-13.0,-14.0,8
19.0,37.0,34.0,29.0,28.0,26.0,27.0,24.0,-2.0,-19.0,12.0,15.0,14.0,17.0,12.0,8.0,8
-15.0,-30.0,-47.0,-47.0,-30.0,-19.0,-34.0,-44.0,-13.0,499.0,-22.0,-32.0,-43.0,-59.0,-71.0,-67.0,8
-20.0,-6.0,-8.0,-9.0,-7.0,-4.0,-7.0,-12.0,-19.0,-85.0,-3.0,-7.0,-16.0,-21.0,-10.0,-14.0,8
52.0,55.0,45.0,45.0,50.0,81.0,59.0,45.0,-12.0,-249.0,21.0,28.0,32.0,21.0,37.0,39.0,8
6.0,6.0,6.0,5.0,1.0,-6.0,-5.0,1.0,-4.0,56.0,-5.0,-5.0,-5.0,-1.0,0.0,0.0,8
-86.0,-8.0,-5.0,-9.0,-23.0,-46.0,-27.0,-8.0,-1.0,-250.0,15.0,-2.0,-4.0,1.0,6.0,5.0,8
-57.0,-52.0,-54.0,-64.0,-69.0,-63.0,-58.0,-64.0,-64.0,56.0,-62.0,-63.0,-70.0,-72.0,-73.0,-46.0,8
-6.0,-16.0,-17.0,-17.0,-19.0,-26.0,-20.0,-15.0,-8.0,79.0,-13.0,-13.0,-13.0,-15.0,-5.0,-4.0,8
-12.0,-24.0,-53.0,3.0,15.0,26.0,20.0,10.0,-32.0,-12.0,6.0,-2.0,3.0,-1.0,13.0,6.0,8
4.0,-19.0,-16.0,-15.0,-17.0,-15.0,-17.0,-13.0,29.0,-45.0,0.0,-5.0,-5.0,-2.0,-4.0,-1.0,8
-45.0,-13.0,3.0,6.0,2.0,-5.0,-8.0,-5.0,-23.0,-140.0,3.0,3.0,-1.0,4.0,1.0,-9.0,8
-60.0,-80.0,-74.0,-81.0,-100.0,-111.0,-104.0,-82.0,-36.0,479.0,-54.0,-49.0,-55.0,-44.0,-54.0,-69.0,8
-7.0,-5.0,0.0,5.0,5.0,4.0,1.0,-3.0,31.0,-10.0,13.0,4.0,9.0,21.0,17.0,20.0,8
-24.0,-30.0,-26.0,-22.0,-9.0,19.0,-3.0,-23.0,23.0,-62.0,-12.0,-17.0,-20.0,-30.0,-56.0,-29.0,8
47.0,14.0,17.0,21.0,28.0,22.0,27.0,31.0,122.0,454.0,34.0,18.0,6.0,2.0,-3.0,-38.0,8
8.0,1.0,1.0,5.0,27.0,64.0,8.0,1.0,7.0,5.0,3.0,7.0,11.0,16.0,44.0,25.0,8
26.0,25.0,29.0,34.0,32.0,19.0,28.0,31.0,-50.0,-85.0,2.0,29.0,31.0,14.0,51.0,59.0,8
60.0,18.0,22.0,22.0,20.0,17.0,8.0,21.0,78.0,326.0,20.0,15.0,17.0,24.0,11.0,22.0,8
11.0,10.0,7.0,5.0,10.0,21.0,13.0,8.0,11.0,-33.0,3.0,3.0,5.0,3.0,5.0,2.0,8
81.0,68.0,65.0,68.0,64.0,66.0,71.0,71.0,25.0,-251.0,63.0,66.0,68.0,82.0,76.0,46.0,8
4.0,-16.0,-14.0,-14.0,-12.0,8.0,-3.0,-6.0,-8.0,21.0,-10.0,-1.0,15.0,12.0,0.0,3.0,8
81.0,33.0,33.0,35.0,39.0,33.0,27.0,27.0,64.0,416.0,32.0,46.0,51.0,36.0,2.0,-45.0,8
4.0,-2.0,3.0,8.0,16.0,21.0,-8.0,-10.0,14.0,-20.0,9.0,3.0,-2.0,12.0,54.0,23.0,8
27.0,14.0,13.0,9.0,3.0,-20.0,5.0,11.0,11.0,-169.0,15.0,6.0,7.0,6.0,3.0,5.0,8
12.0,11.0,6.0,4.0,1.0,-12.0,-5.0,10.0,-26.0,100.0,-3.0,-1.0,-5.0,5.0,9.0,8.0,8
-11.0,-8.0,-10.0,-7.0,1.0,12.0,5.0,-6.0,11.0,-101.0,0.0,-4.0,-3.0,-20.0,-40.0,-18.0,8
1.0,-12.0,-5.0,-4.0,3.0,7.0,5.0,7.0,-17.0,38.0,-5.0,-6.0,-9.0,-8.0,-1.0,-5.0,8
3.0,15.0,15.0,14.0,11.0,25.0,19.0,15.0,27.0,-251.0,23.0,11.0,10.0,9.0,23.0,21.0,8
16.0,23.0,31.0,14.0,10.0,-7.0,-12.0,2.0,-8.0,-28.0,-5.0,8.0,23.0,38.0,42.0,19.0,8
-7.0,-9.0,-13.0,-17.0,-18.0,-24.0,-7.0,-14.0,-8.0,24.0,-10.0,-8.0,-10.0,-21.0,-11.0,-5.0,8
5.0,-1.0,6.0,14.0,22.0,23.0,17.0,10.0,3.0,33.0,-1.0,-1.0,0.0,-10.0,-7.0,-2.0,8
-4.0,14.0,8.0,8.0,7.0,29.0,16.0,14.0,-30.0,-81.0,2.0,12.0,21.0,23.0,17.0,21.0,8
3.0,-6.0,-4.0,-2.0,-8.0,-27.0,1.0,-1.0,-10.0,-75.0,-2.0,-5.0,-8.0,-16.0,-5.0,-2.0,8
81.0,39.0,33.0,35.0,33.0,19.0,26.0,36.0,30.0,-135.0,36.0,35.0,40.0,58.0,54.0,23.0,8
12.0,1.0,1.0,3.0,7.0,16.0,20.0,6.0,-9.0,-127.0,-3.0,-8.0,-9.0,-20.0,-27.0,-20.0,8
8.0,0.0,2.0,3.0,-5.0,5.0,1.0,3.0,7.0,-7.0,2.0,2.0,2.0,-2.0,0.0,-3.0,8
-3.0,14.0,21.0,19.0,10.0,7.0,27.0,24.0,-1.0,-85.0,-1.0,11.0,14.0,-10.0,-3.0,1.0,8
-9.0,-11.0,-7.0,-3.0,1.0,5.0,-6.0,-7.0,6.0,-7.0,-2.0,-4.0,-5.0,-6.0,-9.0,2.0,8
-4.0,-6.0,0.0,0.0,1.0,-2.0,0.0,-1.0,-1.0,-28.0,4.0,2.0,4.0,1.0,-1.0,-3.0,8
-26.0,-29.0,-17.0,-12.0,-11.0,-31.0,-23.0,-16.0,-6.0,2.0,-24.0,-18.0,-15.0,-1.0,2.0,-8.0,8
-4.0,0.0,3.0,2.0,-6.0,-23.0,-2.0,-1.0,2.0,-67.0,6.0,3.0,4.0,7.0,4.0,7.0,8
-105.0,-16.0,-10.0,-10.0,-11.0,-15.0,-10.0,-17.0,-19.0,-32.0,-1.0,-3.0,-8.0,-22.0,-17.0,-12.0,8
3.0,7.0,8.0,8.0,9.0,2.0,5.0,3.0,11.0,-164.0,11.0,1.0,0.0,-1.0,-2.0,1.0,8
-8.0,-6.0,-5.0,-5.0,-10.0,-12.0,1.0,-4.0,-8.0,71.0,-5.0,-5.0,-4.0,-3.0,-6.0,-5.0,8
3.0,4.0,10.0,13.0,14.0,9.0,10.0,12.0,-57.0,-170.0,13.0,3.0,3.0,-5.0,14.0,2.0,8
-2.0,-5.0,-5.0,-2.0,2.0,25.0,-2.0,2.0,-12.0,-198.0,2.0,3.0,9.0,5.0,13.0,13.0,8
-31.0,-15.0,-12.0,-11.0,-16.0,-30.0,-28.0,-23.0,-22.0,-78.0,-6.0,-8.0,-13.0,-24.0,-9.0,-7.0,8
-41.0,31.0,29.0,31.0,27.0,23.0,14.0,19.0,-19.0,-302.0,23.0,31.0,37.0,46.0,41.0,36.0,8
18.0,25.0,20.0,20.0,17.0,7.0,13.0,10.0,12.0,21.0,7.0,2.0,-4.0,6.0,3.0,6.0,8
5.0,12.0,6.0,4.0,-1.0,-15.0,4.0,6.0,1.0,7.0,-3.0,-3.0,5.0,8.0,-1.0,-3.0,8
-15.0,-21.0,-14.0,-8.0,-7.0,-6.0,-12.0,-3.0,-11.0,13.0,-1.0,1.0,3.0,8.0,17.0,14.0,8
-12.0,-7.0,-9.0,-8.0,-6.0,-4.0,-8.0,-1.0,-42.0,-47.0,-11.0,-3.0,-1.0,8.0,-11.0,-9.0,8
-2.0,3.0,2.0,-2.0,-13.0,-39.0,-10.0,0.0,-10.0,-85.0,1.0,-2.0,-6.0,-14.0,-11.0,10.0,8
-27.0,-4.0,-1.0,2.0,7.0,6.0,-16.0,-6.0,11.0,-272.0,9.0,-4.0,-2.0,-5.0,-6.0,-1.0,8
9.0,11.0,14.0,10.0,6.0,-5.0,1.0,10.0,14.0,10.0,12.0,11.0,10.0,3.0,3.0,8.0,8
-41.0,-34.0,-39.0,-44.0,-57.0,-83.0,-60.0,-48.0,2.0,543.0,-15.0,-32.0,-27.0,-25.0,-37.0,-38.0,8
-7.0,4.0,1.0,-1.0,-4.0,-12.0,-5.0,-4.0,0.0,73.0,3.0,3.0,5.0,8.0,-7.0,1.0,8
-10.0,-9.0,3.0,6.0,4.0,1.0,9.0,1.0,-5.0,29.0,-1.0,-4.0,-7.0,-4.0,-25.0,-13.0,8
35.0,10.0,1.0,0.0,4.0,-10.0,-7.0,15.0,121.0,489.0,23.0,-5.0,-14.0,-21.0,-3.0,-65.0,8
-17.0,-16.0,-9.0,0.0,19.0,50.0,7.0,-24.0,-11.0,-5.0,-1.0,-4.0,-14.0,-21.0,-11.0,-4.0,8
8.0,16.0,9.0,7.0,6.0,-6.0,4.0,12.0,22.0,-72.0,13.0,6.0,5.0,8.0,10.0,7.0,8
29.0,10.0,11.0,8.0,3.0,-20.0,-14.0,-4.0,21.0,258.0,13.0,1.0,1.0,13.0,14.0,-13.0,8
-6.0,-15.0,-8.0,-9.0,-20.0,-51.0,-23.0,-20.0,-20.0,290.0,-24.0,-10.0,-8.0,-12.0,-1.0,-8.0,8
0.0,12.0,6.0,5.0,-3.0,-35.0,-8.0,0.0,-2.0,28.0,1.0,-3.0,0.0,-1.0,-2.0,-3.0,8
-8.0,1.0,2.0,-3.0,-14.0,-27.0,-8.0,-8.0,11.0,-255.0,4.0,-8.0,-5.0,-6.0,-3.0,-3.0,8
19.0,7.0,5.0,2.0,-5.0,-11.0,8.0,7.0,10.0,-70.0,12.0,14.0,16.0,16.0,31.0,27.0,8
-75.0,-71.0,-76.0,-79.0,-84.0,-67.0,-70.0,-79.0,-31.0,268.0,-55.0,-64.0,-73.0,-71.0,-100.0,-62.0,8
5.0,0.0,-2.0,3.0,16.0,38.0,5.0,3.0,-6.0,40.0,-3.0,3.0,9.0,10.0,17.0,3.0,8
14.0,17.0,16.0,17.0,29.0,19.0,21.0,13.0,16.0,-20.0,13.0,6.0,0.0,12.0,9.0,8.0,8
64.0,52.0,46.0,46.0,43.0,50.0,45.0,47.0,34.0,51.0,21.0,39.0,41.0,40.0,67.0,29.0,8
-13.0,-12.0,-2.0,1.0,0.0,3.0,16.0,4.0,10.0,-77.0,-1.0,0.0,5.0,-12.0,0.0,7.0,8
-19.0,-15.0,-1.0,5.0,12.0,20.0,13.0,6.0,-31.0,-164.0,-7.0,1.0,-1.0,3.0,21.0,25.0,8
31.0,32.0,24.0,17.0,-11.0,-55.0,12.0,31.0,53.0,-235.0,27.0,29.0,36.0,21.0,14.0,-29.0,8
67.0,64.0,63.0,65.0,63.0,60.0,69.0,64.0,4.0,-282.0,42.0,56.0,64.0,78.0,98.0,136.0,8
2.0,2.0,-3.0,-9.0,-15.0,-24.0,-8.0,-4.0,-5.0,27.0,-5.0,-3.0,-6.0,-15.0,-6.0,-2.0,8
-14.0,-3.0,-11.0,-15.0,-19.0,-31.0,-33.0,-19.0,-33.0,31.0,-21.0,-13.0,-13.0,-19.0,-40.0,-33.0,8
16.0,14.0,6.0,4.0,13.0,13.0,15.0,7.0,0.0,-23.0,-1.0,-3.0,-6.0,-24.0,-35.0,-22.0,8
22.0,16.0,13.0,9.0,8.0,7.0,14.0,16.0,8.0,62.0,7.0,15.0,23.0,17.0,8.0,11.0,8
33.0,6.0,-11.0,-15.0,8.0,42.0,41.0,18.0,19.0,445.0,2.0,-6.0,-8.0,-4.0,-39.0,-52.0,8
11.0,17.0,9.0,10.0,17.0,47.0,20.0,25.0,16.0,-202.0,19.0,16.0,33.0,40.0,38.0,9.0,8
-16.0,7.0,7.0,5.0,5.0,6.0,7.0,4.0,-35.0,-92.0,1.0,3.0,4.0,12.0,19.0,4.0,8
78.0,14.0,8.0,8.0,11.0,9.0,14.0,14.0,38.0,250.0,2.0,-2.0,-1.0,1.0,-2.0,2.0,8
9.0,7.0,9.0,14.0,14.0,-16.0,-12.0,-4.0,-12.0,-248.0,7.0,-3.0,-14.0,-25.0,-18.0,-10.0,8
-23.0,-5.0,-5.0,-7.0,-10.0,-19.0,-16.0,-14.0,-11.0,-35.0,-3.0,-4.0,-5.0,-2.0,-3.0,-5.0,8
-22.0,12.0,17.0,15.0,2.0,-15.0,-15.0,0.0,16.0,-60.0,17.0,17.0,11.0,20.0,34.0,14.0,8
-19.0,-24.0,-18.0,-18.0,-20.0,-31.0,-33.0,-22.0,-14.0,42.0,-17.0,-17.0,-17.0,-21.0,-14.0,-16.0,8
12.0,17.0,16.0,17.0,13.0,-14.0,1.0,15.0,-3.0,-225.0,14.0,14.0,23.0,31.0,53.0,32.0,8
-96.0,-82.0,-80.0,-81.0,-88.0,-117.0,-90.0,-88.0,-47.0,80.0,-71.0,-74.0,-74.0,-78.0,-73.0,-37.0,8
-19.0,-13.0,-9.0,-14.0,-33.0,-27.0,-24.0,-24.0,-2.0,10.0,-9.0,-5.0,3.0,-23.0,-23.0,-11.0,8
-32.0,-47.0,-38.0,-33.0,-15.0,12.0,-19.0,-23.0,168.0,677.0,-2.0,-25.0,-24.0,-16.0,-45.0,-113.0,8
55.0,33.0,32.0,34.0,32.0,32.0,36.0,38.0,59.0,-188.0,36.0,42.0,48.0,63.0,65.0,47.0,8
16.0,31.0,29.0,29.0,31.0,29.0,35.0,34.0,-13.0,-379.0,27.0,27.0,37.0,55.0,42.0,51.0,8
0.0,17.0,26.0,22.0,28.0,30.0,25.0,15.0,-65.0,-196.0,0.0,15.0,27.0,14.0,42.0,35.0,8
21.0,33.0,33.0,30.0,19.0,10.0,19.0,21.0,-7.0,-126.0,16.0,13.0,22.0,35.0,23.0,11.0,8
-6.0,10.0,14.0,13.0,-6.0,-73.0,-17.0,1.0,10.0,-114.0,11.0,2.0,4.0,21.0,12.0,7.0,8
4.0,-3.0,-9.0,-16.0,-26.0,-39.0,-16.0,-12.0,7.0,31.0,-4.0,-2.0,2.0,-4.0,0.0,-5.0,8
0.0,18.0,22.0,16.0,13.0,10.0,12.0,12.0,-78.0,-139.0,-4.0,8.0,14.0,17.0,21.0,32.0,8
23.0,6.0,9.0,14.0,21.0,25.0,15.0,6.0,25.0,42.0,4.0,2.0,5.0,6.0,1.0,10.0,8
-26.0,-4.0,3.0,-4.0,-4.0,0.0,-1.0,2.0,-61.0,-178.0,7.0,2.0,2.0,-17.0,12.0,5.0,8
18.0,15.0,10.0,6.0,4.0,16.0,18.0,19.0,4.0,-111.0,4.0,8.0,13.0,-1.0,23.0,22.0,8
39.0,31.0,31.0,32.0,29.0,29.0,30.0,33.0,9.0,-33.0,-2.0,31.0,41.0,28.0,17.0,7.0,8
-9.0,9.0,16.0,6.0,10.0,8.0,2.0,1.0,-50.0,-150.0,0.0,11.0,13.0,13.0,35.0,8.0,8
-9.0,10.0,7.0,8.0,10.0,19.0,14.0,12.0,-4.0,-43.0,7.0,7.0,11.0,23.0,34.0,16.0,8
-42.0,-7.0,1.0,-1.0,-4.0,0.0,6.0,-4.0,-41.0,-251.0,2.0,-1.0,4.0,0.0,10.0,-1.0,8
37.0,41.0,36.0,40.0,49.0,58.0,47.0,40.0,12.0,-79.0,15.0,32.0,36.0,17.0,17.0,-11.0,8
-2.0,-3.0,-4.0,-7.0,-12.0,-8.0,-14.0,-11.0,3.0,5.0,1.0,3.0,3.0,5.0,1.0,4.0,8
-13.0,-3.0,-3.0,-2.0,-5.0,-8.0,-5.0,-7.0,-9.0,-74.0,-1.0,-5.0,-4.0,-10.0,-16.0,-7.0,8
-7.0,-6.0,-8.0,-11.0,-11.0,-14.0,-13.0,-7.0,2.0,-8.0,-2.0,-2.0,0.0,0.0,-1.0,7.0,8
-9.0,-7.0,-11.0,-10.0,-6.0,-2.0,-12.0,-9.0,-8.0,10.0,-5.0,-4.0,-3.0,-1.0,0.0,-5.0,8
-12.0,-9.0,-14.0,-12.0,-8.0,-3.0,-11.0,-11.0,-10.0,8.0,-6.0,-6.0,-4.0,-1.0,-1.0,-6.0,8
-7.0,2.0,10.0,14.0,14.0,-15.0,-4.0,-10.0,4.0,-7.0,3.0,-5.0,-12.0,10.0,2.0,-1.0,8
-90.0,-100.0,-82.0,-80.0,-72.0,-38.0,-85.0,-88.0,-62.0,444.0,-62.0,-69.0,-74.0,-70.0,-95.0,-75.0,8
21.0,33.0,19.0,21.0,26.0,29.0,25.0,22.0,5.0,-217.0,14.0,16.0,19.0,19.0,35.0,10.0,8
-19.0,-29.0,-31.0,-32.0,-37.0,-44.0,-22.0,-28.0,-22.0,-33.0,-24.0,-24.0,-28.0,-19.0,-5.0,-4.0,8
-21.0,-23.0,-16.0,-16.0,-15.0,-8.0,-14.0,-16.0,-20.0,62.0,-20.0,-12.0,-12.0,-14.0,-18.0,-14.0,8
1.0,11.0,3.0,3.0,1.0,-6.0,0.0,3.0,15.0,-204.0,19.0,7.0,6.0,15.0,16.0,13.0,8
17.0,13.0,11.0,11.0,6.0,11.0,6.0,12.0,14.0,-12.0,8.0,8.0,11.0,8.0,4.0,8.0,8
-24.0,-9.0,4.0,7.0,3.0,-39.0,-22.0,4.0,-47.0,-28.0,3.0,11.0,2.0,17.0,7.0,15.0,8
51.0,8.0,9.0,9.0,5.0,-7.0,8.0,3.0,-5.0,59.0,3.0,11.0,19.0,15.0,10.0,7.0,8
-32.0,-18.0,-16.0,-19.0,-22.0,-27.0,-31.0,-33.0,-2.0,-43.0,-14.0,-14.0,-18.0,-15.0,-3.0,-3.0,8
22.0,2.0,0.0,-2.0,0.0,-2.0,-3.0,0.0,18.0,31.0,1.0,0.0,1.0,1.0,1.0,3.0,8
35.0,8.0,7.0,10.0,4.0,12.0,0.0,7.0,-32.0,-280.0,-9.0,-1.0,9.0,8.0,41.0,32.0,8
26.0,35.0,34.0,37.0,25.0,21.0,8.0,8.0,0.0,-216.0,11.0,19.0,34.0,25.0,44.0,30.0,8
-10.0,-9.0,-10.0,-9.0,-6.0,-2.0,-7.0,-5.0,0.0,88.0,-7.0,-8.0,-9.0,6.0,14.0,13.0,8
82.0,63.0,66.0,58.0,53.0,53.0,59.0,58.0,5.0,-102.0,39.0,42.0,46.0,55.0,83.0,105.0,8
-14.0,-16.0,-18.0,-22.0,-23.0,-27.0,-10.0,-20.0,-10.0,21.0,-13.0,-12.0,-13.0,-24.0,-14.0,-7.0,8
-66.0,-44.0,-35.0,-37.0,-40.0,-39.0,-48.0,-44.0,-43.0,-67.0,-30.0,-30.0,-38.0,-70.0,-82.0,-60.0,8
-16.0,0.0,-3.0,-4.0,3.0,6.0,-6.0,-7.0,-10.0,-77.0,6.0,6.0,3.0,8.0,11.0,5.0,8
-5.0,-14.0,-10.0,-14.0,-27.0,-40.0,-22.0,-21.0,-7.0,32.0,-11.0,-8.0,-12.0,-24.0,-16.0,-5.0,8
-4.0,-4.0,-1.0,6.0,18.0,40.0,13.0,3.0,2.0,-7.0,1.0,1.0,-1.0,-7.0,-5.0,1.0,8
22.0,12.0,17.0,19.0,22.0,52.0,24.0,21.0,2.0,-231.0,20.0,29.0,46.0,39.0,50.0,32.0,8
13.0,31.0,38.0,29.0,24.0,14.0,21.0,21.0,-89.0,-222.0,2.0,12.0,20.0,15.0,36.0,45.0,8
74.0,21.0,12.0,8.0,8.0,10.0,10.0,28.0,69.0,325.0,18.0,8.0,1.0,14.0,21.0,25.0,8
-92.0,-88.0,-86.0,-95.0,-106.0,-135.0,-123.0,-101.0,-67.0,223.0,-70.0,-79.0,-88.0,-78.0,-74.0,-44.0,8
20.0,3.0,0.0,-2.0,-3.0,9.0,12.0,6.0,76.0,99.0,23.0,6.0,9.0,-9.0,-23.0,6.0,8
-5.0,1.0,4.0,4.0,3.0,4.0,4.0,2.0,-6.0,63.0,-1.0,1.0,2.0,14.0,15.0,6.0,8
-3.0,5.0,2.0,-2.0,-4.0,-2.0,0.0,-3.0,-16.0,-267.0,5.0,5.0,3.0,1.0,-11.0,-5.0,8
0.0,6.0,8.0,7.0,5.0,3.0,12.0,4.0,-14.0,76.0,0.0,1.0,1.0,-3.0,-11.0,-5.0,8
17.0,21.0,18.0,15.0,16.0,15.0,10.0,9.0,3.0,90.0,7.0,10.0,8.0,5.0,10.0,6.0,8
13.0,32.0,39.0,46.0,59.0,64.0,30.0,25.0,-6.0,-177.0,21.0,24.0,17.0,35.0,76.0,52.0,8
23.0,-9.0,-10.0,-13.0,-25.0,-9.0,-9.0,-12.0,5.0,-77.0,-4.0,-1.0,2.0,4.0,0.0,10.0,8
4.0,7.0,7.0,4.0,-4.0,-25.0,2.0,9.0,4.0,15.0,1.0,3.0,5.0,12.0,12.0,13.0,8
-12.0,-9.0,-5.0,-4.0,-6.0,-12.0,-1.0,-6.0,-11.0,48.0,-11.0,-8.0,-18.0,-13.0,-7.0,-5.0,8
4.0,1.0,-1.0,-3.0,-7.0,-8.0,2.0,5.0,21.0,-68.0,5.0,-3.0,-2.0,-3.0,0.0,-1.0,8
12.0,11.0,11.0,10.0,5.0,-15.0,6.0,11.0,7.0,4.0,11.0,12.0,12.0,9.0,14.0,17.0,8
24.0,25.0,19.0,15.0,3.0,-28.0,2.0,18.0,25.0,-20.0,13.0,6.0,5.0,10.0,6.0,6.0,8
-6.0,-21.0,-25.0,-18.0,20.0,83.0,8.0,-20.0,34.0,632.0,-7.0,-15.0,-12.0,-5.0,-35.0,-58.0,8
9.0,11.0,6.0,4.0,4.0,8.0,7.0,8.0,21.0,-108.0,8.0,0.0,4.0,3.0,4.0,7.0,8
25.0,12.0,8.0,4.0,14.0,30.0,18.0,17.0,8.0,-21.0,3.0,1.0,-2.0,-12.0,1.0,16.0,8
1.0,-10.0,-7.0,-3.0,-4.0,-1.0,-12.0,-6.0,71.0,-63.0,16.0,12.0,11.0,-1.0,3.0,-47.0,8
17.0,24.0,21.0,22.0,25.0,25.0,27.0,17.0,-24.0,-130.0,5.0,12.0,15.0,19.0,23.0,35.0,8
-2.0,-2.0,1.0,4.0,10.0,26.0,18.0,-2.0,5.0,-79.0,2.0,1.0,-2.0,-25.0,-36.0,-14.0,8
21.0,-8.0,-17.0,-30.0,-17.0,-19.0,-39.0,-14.0,-5.0,279.0,-21.0,-61.0,-105.0,-55.0,-40.0,13.0,8
0.0,-11.0,-12.0,-14.0,-18.0,-27.0,1.0,2.0,-17.0,-48.0,-6.0,-3.0,-17.0,-17.0,-23.0,-9.0,8
37.0,25.0,12.0,9.0,4.0,-39.0,-2.0,10.0,14.0,-35.0,14.0,10.0,8.0,13.0,21.0,21.0,8
25.0,19.0,14.0,9.0,19.0,33.0,19.0,20.0,18.0,80.0,16.0,14.0,4.0,22.0,32.0,27.0,8
-20.0,-8.0,-8.0,1.0,2.0,-2.0,5.0,4.0,-101.0,-132.0,23.0,18.0,15.0,17.0,21.0,29.0,8
2.0,8.0,4.0,1.0,-4.0,-25.0,0.0,-1.0,-20.0,54.0,-3.0,-3.0,1.0,7.0,-3.0,-6.0,8
-55.0,-47.0,-48.0,-56.0,-60.0,-64.0,-83.0,-77.0,-70.0,42.0,-56.0,-56.0,-59.0,-53.0,-67.0,-41.0,8
13.0,10.0,6.0,6.0,0.0,-12.0,-3.0,6.0,6.0,13.0,3.0,7.0,5.0,13.0,5.0,3.0,8
-10.0,-9.0,-7.0,-5.0,-8.0,-13.0,-3.0,-5.0,-2.0,-10.0,1.0,3.0,4.0,4.0,4.0,0.0,8
-47.0,35.0,32.0,30.0,25.0,26.0,36.0,32.0,-5.0,-144.0,19.0,27.0,36.0,33.0,31.0,31.0,8
12.0,5.0,5.0,7.0,5.0,-16.0,12.0,17.0,4.0,-50.0,-6.0,7.0,13.0,4.0,30.0,6.0,8
14.0,4.0,1.0,3.0,12.0,46.0,19.0,8.0,58.0,-19.0,27.0,21.0,24.0,4.0,11.0,-11.0,8
76.0,-4.0,-1.0,0.0,-2.0,-7.0,-6.0,-7.0,24.0,221.0,-2.0,-3.0,-10.0,-15.0,-23.0,-18.0,8
5.0,10.0,8.0,8.0,1.0,0.0,-7.0,0.0,-5.0,12.0,6.0,9.0,12.0,10.0,5.0,2.0,8
-27.0,-20.0,-14.0,-18.0,-18.0,-20.0,-18.0,-16.0,-10.0,-138.0,-3.0,-5.0,-3.0,2.0,-2.0,-3.0,8
-5.0,8.0,8.0,8.0,7.0,9.0,4.0,3.0,-22.0,-72.0,5.0,11.0,15.0,24.0,44.0,22.0,8
64.0,74.0,73.0,78.0,72.0,66.0,76.0,70.0,58.0,-62.0,58.0,62.0,70.0,88.0,109.0,115.0,8
43.0,49.0,47.0,49.0,45.0,44.0,53.0,50.0,27.0,-172.0,49.0,43.0,52.0,68.0,95.0,103.0,8
14.0,1.0,1.0,4.0,3.0,2.0,-11.0,-2.0,-28.0,161.0,-3.0,11.0,17.0,19.0,23.0,-23.0,8
52.0,31.0,45.0,49.0,45.0,34.0,37.0,53.0,11.0,139.0,11.0,46.0,59.0,63.0,68.0,48.0,8
21.0,23.0,6.0,7.0,14.0,12.0,9.0,8.0,-12.0,-5.0,-3.0,-4.0,-6.0,-12.0,-7.0,-9.0,8
15.0,10.0,13.0,16.0,14.0,3.0,0.0,11.0,22.0,85.0,3.0,6.0,11.0,23.0,29.0,16.0,8
-6.0,1.0,-7.0,-7.0,7.0,27.0,14.0,7.0,-9.0,102.0,-3.0,1.0,1.0,-9.0,0.0,2.0,8
-18.0,-21.0,-16.0,-12.0,-13.0,-11.0,-19.0,-17.0,-2.0,47.0,-11.0,-13.0,-18.0,-19.0,-12.0,-10.0,8
0.0,14.0,15.0,14.0,8.0,-12.0,14.0,3.0,-6.0,-146.0,-5.0,-5.0,-9.0,17.0,18.0,10.0,8
-10.0,-10.0,-5.0,-5.0,-12.0,-57.0,-20.0,-9.0,8.0,-101.0,-5.0,-10.0,-26.0,-40.0,-24.0,-15.0,8
-43.0,-48.0,-42.0,-45.0,-49.0,-69.0,-76.0,-54.0,-37.0,435.0,-35.0,-40.0,-37.0,-2.0,-13.0,-3.0,8
5.0,-27.0,-37.0,-24.0,-27.0,20.0,-21.0,-12.0,-26.0,-350.0,9.0,-10.0,-14.0,-26.0,19.0,-8.0,8
-29.0,-51.0,-54.0,-51.0,-37.0,-38.0,-48.0,-58.0,71.0,484.0,-42.0,-54.0,-64.0,-64.0,-109.0,-113.0,8
12.0,0.0,-1.0,-5.0,-16.0,-44.0,-14.0,7.0,-12.0,-27.0,-5.0,-3.0,-4.0,-6.0,-2.0,8.0,8
14.0,6.0,7.0,12.0,9.0,15.0,16.0,4.0,12.0,-35.0,5.0,1.0,-11.0,-23.0,-10.0,-2.0,8
-17.0,-25.0,-13.0,-13.0,-15.0,-20.0,-37.0,-19.0,-9.0,-11.0,-6.0,2.0,5.0,15.0,23.0,6.0,8
8.0,13.0,8.0,12.0,19.0,35.0,25.0,17.0,-39.0,-24.0,-7.0,-1.0,-3.0,5.0,18.0,8.0,8
-30.0,-9.0,-10.0,-11.0,-10.0,-17.0,-15.0,-18.0,-6.0,-15.0,-7.0,-4.0,-3.0,-6.0,1.0,5.0,8
-37.0,-15.0,-18.0,-19.0,-19.0,-12.0,-8.0,-10.0,-12.0,-45.0,-17.0,-14.0,-13.0,-17.0,-20.0,-18.0,8
1.0,-8.0,-8.0,-8.0,-11.0,-6.0,-8.0,-1.0,0.0,-27.0,-3.0,-1.0,7.0,1.0,8.0,8.0,8
59.0,37.0,35.0,39.0,44.0,25.0,20.0,25.0,165.0,248.0,40.0,35.0,32.0,-8.0,25.0,0.0,8
-3.0,8.0,8.0,12.0,16.0,23.0,4.0,-3.0,-18.0,-194.0,13.0,16.0,12.0,24.0,31.0,25.0,8
3.0,3.0,5.0,11.0,28.0,59.0,21.0,7.0,5.0,-5.0,5.0,4.0,1.0,-6.0,-3.0,4.0,8
-63.0,-24.0,-23.0,-25.0,-23.0,0.0,-16.0,-21.0,-1.0,-300.0,4.0,-7.0,-3.0,-2.0,16.0,7.0,8
37.0,38.0,20.0,13.0,12.0,14.0,11.0,14.0,16.0,52.0,17.0,15.0,13.0,18.0,10.0,12.0,8
2.0,0.0,3.0,2.0,-6.0,-48.0,-22.0,-11.0,0.0,50.0,3.0,2.0,-4.0,3.0,0.0,-2.0,8
-84.0,4.0,11.0,12.0,15.0,14.0,10.0,2.0,-77.0,16.0,-12.0,3.0,1.0,-6.0,-2.0,-18.0,8
14.0,17.0,17.0,15.0,14.0,28.0,18.0,17.0,8.0,-1.0,5.0,8.0,10.0,7.0,17.0,15.0,8
7.0,8.0,0.0,-3.0,-9.0,-26.0,-6.0,4.0,-5.0,-2.0,-2.0,-5.0,-7.0,-12.0,-20.0,-7.0,8
-1.0,-6.0,-4.0,-3.0,-2.0,5.0,-2.0,-2.0,-1.0,72.0,-4.0,-3.0,-2.0,-10.0,-2.0,3.0,8
19.0,23.0,19.0,15.0,14.0,14.0,14.0,14.0,3.0,-138.0,12.0,7.0,8.0,10.0,6.0,8.0,8
21.0,2.0,-10.0,-11.0,-12.0,-6.0,-7.0,-6.0,-14.0,-85.0,4.0,-3.0,-2.0,-2.0,-11.0,-8.0,8
2.0,13.0,11.0,12.0,21.0,26.0,17.0,15.0,0.0,0.0,5.0,2.0,2.0,6.0,19.0,8.0,8
-12.0,-13.0,-13.0,-14.0,-13.0,-10.0,-19.0,-13.0,1.0,-145.0,2.0,-2.0,-2.0,6.0,4.0,1.0,8
34.0,56.0,57.0,58.0,48.0,67.0,63.0,56.0,9.0,-304.0,33.0,46.0,65.0,43.0,50.0,48.0,8
-14.0,0.0,-19.0,-5.0,1.0,13.0,6.0,-6.0,-39.0,-11.0,-6.0,-6.0,-11.0,-19.0,-21.0,-18.0,8
-8.0,-10.0,-17.0,-18.0,-23.0,-27.0,-12.0,-13.0,-7.0,62.0,-10.0,-13.0,-22.0,-20.0,-22.0,-17.0,8
-113.0,-110.0,-85.0,-76.0,-76.0,-78.0,-41.0,-69.0,-71.0,138.0,-81.0,-79.0,-86.0,-112.0,-134.0,-63.0,8
38.0,35.0,23.0,15.0,26.0,39.0,24.0,27.0,1.0,-81.0,13.0,29.0,26.0,8.0,33.0,17.0,8
-89.0,-20.0,-15.0,-15.0,-20.0,-35.0,-26.0,-21.0,-54.0,-17.0,-19.0,-11.0,-8.0,0.0,-3.0,-13.0,8
2.0,2.0,4.0,5.0,8.0,39.0,10.0,4.0,-23.0,51.0,-4.0,-1.0,-4.0,-1.0,0.0,-4.0,8
-2.0,-6.0,-10.0,-14.0,-21.0,-25.0,-10.0,-5.0,7.0,-30.0,-5.0,0.0,14.0,-7.0,-7.0,-3.0,8
79.0,53.0,51.0,60.0,64.0,102.0,59.0,44.0,39.0,292.0,25.0,31.0,36.0,19.0,15.0,-22.0,8
16.0,20.0,9.0,5.0,7.0,14.0,21.0,14.0,9.0,-76.0,10.0,13.0,7.0,1.0,14.0,27.0,8
0.0,-5.0,-6.0,-9.0,-22.0,-57.0,-18.0,4.0,-25.0,-67.0,-7.0,-13.0,-26.0,-19.0,-13.0,2.0,8
-19.0,-7.0,-8.0,-11.0,-26.0,-43.0,-25.0,-11.0,-9.0,-30.0,-4.0,-6.0,-5.0,-8.0,-9.0,-8.0,8
2.0,-2.0,-4.0,-8.0,-7.0,-10.0,-10.0,-10.0,-2.0,-121.0,-1.0,-5.0,-4.0,-16.0,-17.0,-12.0,8
42.0,24.0,24.0,30.0,33.0,43.0,33.0,32.0,-1.0,-131.0,13.0,12.0,13.0,8.0,38.0,34.0,8
-16.0,-11.0,-21.0,-29.0,-35.0,-6.0,-19.0,-16.0,-23.0,-60.0,-11.0,-8.0,-6.0,3.0,23.0,8.0,8
-54.0,2.0,3.0,0.0,0.0,-8.0,-23.0,10.0,-26.0,-100.0,8.0,7.0,7.0,19.0,38.0,12.0,8
-43.0,39.0,40.0,40.0,40.0,44.0,52.0,40.0,0.0,-137.0,21.0,25.0,25.0,7.0,15.0,19.0,8
2.0,13.0,16.0,18.0,17.0,21.0,13.0,7.0,-14.0,-271.0,14.0,27.0,28.0,33.0,39.0,20.0,8
-8.0,0.0,8.0,13.0,14.0,-12.0,-7.0,-10.0,4.0,-7.0,3.0,-6.0,-13.0,15.0,5.0,0.0,8
-7.0,-41.0,-51.0,-54.0,-34.0,-40.0,-24.0,-3.0,-39.0,350.0,-45.0,-65.0,-89.0,-65.0,-73.0,-18.0,8
5.0,11.0,3.0,2.0,16.0,42.0,26.0,10.0,-3.0,15.0,5.0,1.0,-10.0,-32.0,1.0,12.0,8
-9.0,-18.0,-15.0,-15.0,-27.0,-45.0,-35.0,-19.0,3.0,-28.0,-2.0,0.0,2.0,11.0,6.0,1.0,8
-25.0,-5.0,-4.0,-5.0,-12.0,-37.0,-26.0,-20.0,-21.0,-161.0,-9.0,-7.0,-1.0,10.0,-4.0,-4.0,8
3.0,-9.0,-2.0,-3.0,0.0,12.0,16.0,18.0,11.0,-3.0,3.0,2.0,1.0,2.0,9.0,11.0,8
5.0,-3.0,2.0,4.0,3.0,6.0,7.0,8.0,-11.0,-201.0,6.0,8.0,13.0,27.0,11.0,14.0,8
31.0,42.0,40.0,39.0,43.0,44.0,43.0,44.0,-112.0,-346.0,46.0,46.0,54.0,61.0,100.0,104.0,8
-2.0,5.0,8.0,10.0,6.0,4.0,2.0,4.0,-5.0,-1.0,5.0,0.0,-2.0,-2.0,-2.0,-7.0,8
37.0,-4.0,-14.0,-21.0,-10.0,3.0,4.0,18.0,60.0,454.0,0.0,-10.0,-12.0,25.0,-36.0,-107.0,8
-11.0,-3.0,-3.0,-2.0,-4.0,-12.0,-7.0,0.0,-3.0,-32.0,-1.0,1.0,1.0,10.0,3.0,1.0,8
-11.0,-1.0,-2.0,0.0,5.0,30.0,9.0,-2.0,-65.0,-32.0,-16.0,0.0,5.0,2.0,-11.0,-13.0,8
-65.0,26.0,27.0,31.0,35.0,48.0,47.0,35.0,-24.0,-299.0,19.0,27.0,29.0,13.0,24.0,29.0,8
-54.0,-45.0,-47.0,-51.0,-38.0,-27.0,-20.0,-17.0,2.0,412.0,-31.0,-55.0,-77.0,-66.0,-50.0,-53.0,8
-2.0,4.0,10.0,17.0,29.0,50.0,25.0,18.0,-10.0,22.0,10.0,8.0,11.0,32.0,63.0,42.0,8
2.0,-15.0,-27.0,-36.0,-40.0,-27.0,-42.0,-34.0,27.0,567.0,-12.0,-17.0,-14.0,-11.0,-39.0,-68.0,8
-13.0,-10.0,-8.0,-7.0,3.0,27.0,17.0,14.0,-19.0,-263.0,6.0,1.0,-8.0,-21.0,1.0,10.0,8
-8.0,-5.0,-9.0,-12.0,-20.0,-33.0,-23.0,-8.0,3.0,39.0,-6.0,-4.0,5.0,4.0,2.0,-3.0,8
10.0,21.0,20.0,26.0,35.0,38.0,19.0,11.0,-67.0,-242.0,1.0,22.0,26.0,15.0,33.0,35.0,8
19.0,-22.0,-21.0,-29.0,-37.0,-22.0,-2.0,-12.0,26.0,484.0,-16.0,-17.0,-19.0,-12.0,-58.0,-87.0,8
7.0,0.0,0.0,-8.0,-15.0,-9.0,5.0,1.0,76.0,-76.0,17.0,12.0,4.0,-13.0,-40.0,-81.0,8
-13.0,-11.0,-9.0,-3.0,13.0,56.0,23.0,-9.0,-19.0,22.0,-11.0,-15.0,-24.0,-22.0,-33.0,-21.0,8
2.0,-4.0,-7.0,-6.0,3.0,6.0,1.0,-1.0,10.0,76.0,0.0,0.0,1.0,-4.0,1.0,-1.0,8
36.0,40.0,29.0,24.0,9.0,-9.0,29.0,36.0,15.0,-258.0,21.0,31.0,39.0,28.0,35.0,14.0,8
-11.0,-1.0,-8.0,-13.0,-24.0,-44.0,-25.0,-17.0,-16.0,-23.0,-9.0,-14.0,-14.0,-19.0,-27.0,-18.0,8
35.0,8.0,7.0,7.0,0.0,-15.0,0.0,12.0,47.0,-46.0,8.0,7.0,10.0,21.0,23.0,21.0,8
47.0,43.0,43.0,44.0,38.0,41.0,50.0,47.0,61.0,-71.0,47.0,51.0,57.0,80.0,90.0,83.0,8
-3.0,8.0,11.0,19.0,43.0,84.0,25.0,3.0,2.0,-2.0,5.0,2.0,-9.0,-12.0,-6.0,0.0,8
8.0,27.0,27.0,29.0,37.0,66.0,57.0,33.0,-19.0,-158.0,5.0,14.0,21.0,12.0,-34.0,-3.0,8
81.0,58.0,58.0,59.0,50.0,35.0,57.0,56.0,40.0,-89.0,39.0,44.0,50.0,61.0,83.0,101.0,8
-23.0,-14.0,-9.0,-7.0,-12.0,-14.0,-18.0,-14.0,-11.0,66.0,-9.0,-8.0,-8.0,0.0,-1.0,-2.0,8
-60.0,-56.0,-57.0,-61.0,-59.0,-60.0,-76.0,-65.0,-31.0,152.0,-46.0,-42.0,-42.0,-33.0,-45.0,-17.0,8
-51.0,2.0,10.0,13.0,14.0,11.0,7.0,8.0,-29.0,-116.0,3.0,3.0,4.0,6.0,11.0,-1.0,8
6.0,8.0,4.0,6.0,-2.0,-26.0,0.0,3.0,3.0,2.0,5.0,1.0,-3.0,-11.0,-25.0,-7.0,8
45.0,52.0,51.0,55.0,46.0,45.0,56.0,52.0,-17.0,-173.0,55.0,52.0,55.0,70.0,100.0,105.0,8
-19.0,-13.0,-16.0,-15.0,-14.0,-12.0,-6.0,-8.0,-43.0,-47.0,-14.0,-5.0,-5.0,8.0,-6.0,-8.0,8
-15.0,-40.0,-102.0,-43.0,-33.0,-36.0,-14.0,-14.0,-37.0,8.0,35.0,-10.0,-28.0,-45.0,-37.0,-19.0,8
37.0,43.0,45.0,59.0,87.0,170.0,101.0,58.0,-4.0,-117.0,25.0,41.0,58.0,55.0,87.0,76.0,8
17.0,-6.0,-12.0,-14.0,-18.0,-3.0,-4.0,5.0,23.0,42.0,-1.0,8.0,14.0,1.0,7.0,9.0,8
8.0,2.0,-4.0,-3.0,10.0,36.0,4.0,-1.0,-18.0,153.0,-5.0,0.0,0.0,-7.0,1.0,4.0,8
10.0,10.0,4.0,4.0,5.0,0.0,4.0,9.0,18.0,10.0,5.0,15.0,19.0,10.0,11.0,16.0,8
10.0,15.0,11.0,8.0,11.0,5.0,17.0,15.0,8.0,-2.0,1.0,-3.0,-1.0,2.0,-4.0,-2.0,8
7.0,9.0,7.0,-2.0,-16.0,-38.0,-1.0,1.0,8.0,-18.0,5.0,6.0,21.0,3.0,-3.0,0.0,8
2.0,-17.0,-7.0,1.0,13.0,35.0,2.0,-11.0,49.0,279.0,0.0,-13.0,-18.0,-23.0,-26.0,-5.0,8
1.0,-5.0,9.0,8.0,-2.0,-17.0,3.0,4.0,-12.0,-129.0,13.0,4.0,4.0,17.0,-11.0,0.0,8
13.0,6.0,10.0,13.0,14.0,20.0,18.0,8.0,-7.0,-289.0,17.0,12.0,14.0,3.0,-10.0,-9.0,8
-32.0,-30.0,-25.0,-28.0,-30.0,-22.0,-20.0,-21.0,4.0,-107.0,-4.0,-12.0,-17.0,-17.0,-18.0,-5.0,8
-33.0,-20.0,-11.0,-12.0,-19.0,-10.0,-1.0,-2.0,-21.0,-102.0,-18.0,-4.0,-3.0,-31.0,-25.0,-10.0,8
55.0,58.0,59.0,59.0,57.0,46.0,56.0,57.0,-15.0,-73.0,47.0,50.0,55.0,59.0,81.0,94.0,8
-2.0,-19.0,-26.0,-28.0,-33.0,-41.0,-21.0,-6.0,121.0,298.0,10.0,3.0,11.0,-15.0,-12.0,-49.0,8
17.0,21.0,10.0,9.0,18.0,38.0,33.0,22.0,6.0,4.0,12.0,9.0,14.0,19.0,15.0,13.0,8
-3.0,-4.0,-4.0,-6.0,-10.0,-21.0,-10.0,-12.0,-19.0,-127.0,1.0,1.0,5.0,-5.0,-21.0,-4.0,8
-6.0,-18.0,-13.0,-12.0,-14.0,0.0,-4.0,-8.0,-4.0,8.0,-1.0,-1.0,-2.0,4.0,-1.0,-3.0,8
53.0,7.0,5.0,3.0,1.0,-12.0,-3.0,0.0,14.0,-60.0,6.0,0.0,-3.0,3.0,-8.0,10.0,8
1.0,3.0,3.0,2.0,2.0,-20.0,0.0,0.0,-1.0,59.0,0.0,3.0,7.0,-1.0,-1.0,-1.0,8
-15.0,-5.0,2.0,6.0,3.0,9.0,5.0,2.0,-30.0,-427.0,11.0,11.0,14.0,13.0,29.0,41.0,8
35.0,43.0,43.0,49.0,46.0,38.0,37.0,42.0,-71.0,-271.0,29.0,38.0,45.0,56.0,88.0,108.0,8
24.0,27.0,25.0,22.0,28.0,53.0,43.0,31.0,-8.0,-192.0,17.0,16.0,29.0,23.0,12.0,24.0,8
78.0,28.0,24.0,25.0,32.0,42.0,35.0,31.0,78.0,426.0,34.0,32.0,27.0,7.0,-8.0,-49.0,8
-9.0,-2.0,-5.0,-3.0,2.0,10.0,-4.0,2.0,5.0,-36.0,1.0,0.0,-1.0,7.0,23.0,13.0,8
3.0,13.0,16.0,18.0,21.0,10.0,-31.0,-28.0,86.0,140.0,33.0,20.0,14.0,7.0,-9.0,-49.0,8
65.0,1.0,-3.0,-4.0,0.0,15.0,-4.0,-3.0,25.0,149.0,-2.0,-2.0,0.0,-1.0,-5.0,-4.0,8
-65.0,-7.0,-5.0,-3.0,-6.0,6.0,-4.0,-6.0,-13.0,-20.0,-2.0,-1.0,-2.0,-3.0,2.0,-8.0,8
26.0,22.0,6.0,-6.0,-20.0,-38.0,-32.0,-7.0,87.0,-130.0,25.0,2.0,-4.0,12.0,36.0,41.0,8
2.0,-1.0,-7.0,-10.0,-7.0,5.0,-20.0,-3.0,12.0,-8.0,1.0,-2.0,1.0,12.0,38.0,21.0,8
19.0,22.0,23.0,24.0,19.0,17.0,21.0,21.0,59.0,-35.0,32.0,24.0,25.0,8.0,9.0,-6.0,8
-23.0,3.0,1.0,2.0,-1.0,-11.0,-1.0,-4.0,0.0,-34.0,1.0,-3.0,-5.0,-4.0,-7.0,-9.0,8
-25.0,-21.0,-20.0,-20.0,-18.0,0.0,-12.0,-17.0,-22.0,-35.0,-11.0,-11.0,-9.0,0.0,-8.0,-11.0,8
22.0,11.0,1.0,2.0,-1.0,-6.0,8.0,4.0,72.0,114.0,16.0,6.0,1.0,2.0,12.0,-2.0,8
-57.0,-37.0,-30.0,-37.0,-58.0,-50.0,-58.0,-59.0,-41.0,341.0,-35.0,-23.0,-16.0,-46.0,-52.0,-20.0,8
-12.0,-8.0,-17.0,-22.0,-22.0,-21.0,-32.0,-16.0,7.0,-61.0,-4.0,-8.0,-9.0,0.0,8.0,1.0,8
4.0,5.0,14.0,18.0,21.0,36.0,33.0,27.0,-12.0,-161.0,8.0,14.0,23.0,33.0,48.0,38.0,8
-14.0,-15.0,-16.0,-18.0,-18.0,-18.0,-27.0,-18.0,-8.0,-23.0,-7.0,-5.0,-5.0,1.0,5.0,-1.0,8
-48.0,-50.0,-38.0,-36.0,-44.0,-60.0,-39.0,-37.0,-21.0,-93.0,-16.0,-18.0,-14.0,-14.0,-6.0,-12.0,8
-10.0,8.0,4.0,2.0,2.0,-3.0,9.0,8.0,0.0,-23.0,6.0,9.0,17.0,18.0,12.0,3.0,8
10.0,11.0,8.0,7.0,13.0,7.0,10.0,17.0,20.0,-123.0,10.0,7.0,0.0,10.0,12.0,8.0,8
-62.0,-3.0,-4.0,-6.0,-7.0,-6.0,-4.0,-6.0,-30.0,-8.0,-7.0,0.0,4.0,5.0,5.0,-1.0,8
61.0,47.0,47.0,53.0,48.0,48.0,51.0,53.0,104.0,-220.0,53.0,43.0,50.0,64.0,63.0,39.0,8
0.0,-6.0,-3.0,-3.0,-14.0,-36.0,-8.0,-2.0,-14.0,-77.0,0.0,-6.0,-7.0,-8.0,-9.0,-3.0,8
-6.0,14.0,11.0,8.0,1.0,2.0,5.0,7.0,-5.0,-114.0,7.0,1.0,10.0,12.0,2.0,1.0,8
-22.0,-2.0,-6.0,-9.0,-5.0,16.0,5.0,-6.0,-8.0,-2.0,-5.0,-4.0,-4.0,1.0,-2.0,-1.0,8
20.0,13.0,8.0,9.0,11.0,11.0,23.0,15.0,23.0,-59.0,8.0,3.0,-1.0,-3.0,-30.0,-10.0,8
25.0,20.0,21.0,26.0,33.0,34.0,27.0,18.0,16.0,175.0,-11.0,17.0,23.0,13.0,0.0,-43.0,8
8.0,7.0,1.0,3.0,4.0,6.0,6.0,11.0,15.0,-13.0,9.0,10.0,14.0,25.0,14.0,13.0,8
63.0,-10.0,-10.0,-11.0,-23.0,-23.0,-22.0,-6.0,27.0,235.0,-4.0,-8.0,-7.0,-5.0,-1.0,3.0,8
106.0,72.0,47.0,37.0,21.0,3.0,31.0,57.0,19.0,60.0,34.0,42.0,52.0,49.0,35.0,32.0,8
6.0,-4.0,-12.0,-13.0,-8.0,0.0,-6.0,-9.0,5.0,12.0,-7.0,-7.0,-4.0,-14.0,-6.0,-5.0,8
22.0,-6.0,0.0,-3.0,-4.0,2.0,-4.0,-5.0,39.0,506.0,-2.0,1.0,-1.0,2.0,-21.0,-62.0,8
10.0,20.0,20.0,-8.0,-16.0,-20.0,5.0,2.0,-20.0,-35.0,-20.0,-11.0,-14.0,-25.0,-15.0,-12.0,8
21.0,23.0,17.0,23.0,34.0,34.0,35.0,22.0,-17.0,-247.0,8.0,8.0,7.0,11.0,33.0,13.0,8
33.0,41.0,35.0,33.0,42.0,65.0,50.0,39.0,3.0,-180.0,23.0,19.0,34.0,35.0,39.0,40.0,8
-21.0,1.0,6.0,10.0,8.0,0.0,13.0,2.0,4.0,-30.0,3.0,1.0,1.0,-1.0,-8.0,-8.0,8
1.0,-9.0,-8.0,-3.0,-2.0,-8.0,-7.0,-6.0,8.0,36.0,-3.0,-3.0,2.0,0.0,-7.0,0.0,8
-19.0,-3.0,-4.0,-1.0,10.0,34.0,3.0,-2.0,3.0,-29.0,5.0,10.0,10.0,2.0,7.0,-1.0,8
10.0,34.0,29.0,25.0,12.0,-19.0,2.0,25.0,-15.0,-260.0,20.0,29.0,35.0,36.0,43.0,31.0,8
6.0,-8.0,-6.0,-6.0,-6.0,-10.0,-2.0,0.0,-6.0,-108.0,2.0,0.0,-1.0,-11.0,-7.0,-2.0,8
20.0,6.0,8.0,8.0,3.0,-28.0,-13.0,6.0,12.0,35.0,1.0,-1.0,6.0,0.0,-6.0,-5.0,8
-91.0,-90.0,-103.0,-105.0,-98.0,-94.0,-91.0,-91.0,-41.0,123.0,-76.0,-84.0,-92.0,-92.0,-106.0,-65.0,8
11.0,3.0,-6.0,-5.0,10.0,40.0,9.0,6.0,21.0,-4.0,0.0,-8.0,-29.0,-5.0,0.0,0.0,8
-34.0,-11.0,-14.0,-12.0,-12.0,-13.0,-13.0,-14.0,-96.0,-144.0,2.0,-6.0,-6.0,-8.0,-5.0,-8.0,8
2.0,-1.0,2.0,6.0,1.0,-14.0,-11.0,-8.0,-29.0,-253.0,-5.0,-10.0,-10.0,-8.0,-29.0,-22.0,8
11.0,14.0,10.0,12.0,12.0,16.0,29.0,37.0,-3.0,-150.0,12.0,19.0,24.0,23.0,34.0,41.0,8
15.0,15.0,11.0,13.0,18.0,24.0,25.0,20.0,2.0,51.0,3.0,3.0,5.0,-1.0,-4.0,-2.0,8
25.0,11.0,10.0,8.0,3.0,-2.0,5.0,9.0,15.0,136.0,6.0,9.0,8.0,7.0,2.0,10.0,8
-10.0,-1.0,6.0,11.0,18.0,40.0,25.0,20.0,-21.0,-328.0,6.0,8.0,15.0,9.0,34.0,50.0,8
0.0,-11.0,1.0,2.0,-2.0,-6.0,2.0,7.0,-9.0,-157.0,11.0,9.0,17.0,25.0,10.0,17.0,8
-2.0,-8.0,-11.0,-10.0,-12.0,-10.0,-6.0,-8.0,6.0,-8.0,-2.0,-2.0,-6.0,-12.0,-16.0,-5.0,8
-15.0,-45.0,-48.0,-45.0,-32.0,-37.0,-49.0,-47.0,-30.0,422.0,-45.0,-52.0,-59.0,-38.0,-87.0,-95.0,8
-23.0,-11.0,-10.0,-14.0,-19.0,-19.0,-18.0,-15.0,-13.0,1.0,-13.0,-6.0,-6.0,-4.0,0.0,-7.0,8
25.0,32.0,26.0,25.0,20.0,19.0,21.0,22.0,5.0,62.0,12.0,13.0,11.0,8.0,7.0,5.0,8
-38.0,-17.0,-12.0,-12.0,-10.0,-18.0,-15.0,-24.0,-22.0,-27.0,-12.0,-18.0,-29.0,-6.0,-11.0,-12.0,8
0.0,-21.0,-26.0,-31.0,-34.0,-53.0,-15.0,-12.0,-23.0,284.0,-26.0,-19.0,-26.0,-29.0,-30.0,-21.0,8
11.0,23.0,17.0,19.0,29.0,53.0,27.0,16.0,72.0,-210.0,22.0,21.0,14.0,1.0,-14.0,-59.0,8
-37.0,-32.0,-21.0,-20.0,-31.0,-58.0,-34.0,-27.0,-25.0,3.0,-15.0,-9.0,-10.0,-12.0,-13.0,-13.0,8
8.0,19.0,21.0,24.0,24.0,29.0,17.0,8.0,16.0,3.0,9.0,7.0,10.0,16.0,17.0,10.0,8
13.0,20.0,17.0,12.0,3.0,31.0,34.0,25.0,1.0,-259.0,22.0,29.0,46.0,56.0,34.0,35.0,8
-6.0,18.0,3.0,-2.0,-7.0,-13.0,0.0,-1.0,-30.0,-79.0,1.0,5.0,7.0,6.0,20.0,19.0,8
48.0,25.0,23.0,22.0,29.0,56.0,24.0,17.0,35.0,225.0,25.0,27.0,23.0,10.0,-7.0,-36.0,8
-10.0,-9.0,-8.0,-10.0,-10.0,-13.0,-23.0,-16.0,3.0,66.0,-5.0,-7.0,-9.0,-13.0,-15.0,-6.0,8
7.0,31.0,24.0,11.0,1.0,-7.0,13.0,17.0,-20.0,-202.0,10.0,5.0,3.0,1.0,13.0,12.0,8
-11.0,2.0,8.0,4.0,4.0,0.0,3.0,5.0,-19.0,-49.0,-7.0,4.0,10.0,12.0,19.0,17.0,8
18.0,37.0,35.0,42.0,33.0,20.0,27.0,33.0,2.0,-311.0,25.0,32.0,29.0,27.0,63.0,51.0,8
-36.0,-1.0,1.0,-2.0,-5.0,-9.0,12.0,16.0,-3.0,-95.0,-3.0,4.0,6.0,9.0,22.0,17.0,8
-2.0,8.0,11.0,11.0,6.0,-28.0,5.0,13.0,6.0,-10.0,9.0,2.0,-6.0,-1.0,6.0,5.0,8
-8.0,1.0,-1.0,-1.0,-2.0,1.0,-6.0,2.0,-9.0,80.0,-3.0,1.0,2.0,1.0,17.0,12.0,8
-12.0,0.0,-1.0,-3.0,-5.0,-8.0,0.0,-8.0,12.0,25.0,3.0,0.0,-1.0,-5.0,-11.0,-1.0,8
21.0,28.0,15.0,11.0,8.0,16.0,6.0,17.0,-76.0,-12.0,-11.0,8.0,7.0,10.0,4.0,9.0,8
22.0,36.0,39.0,29.0,25.0,25.0,16.0,21.0,-74.0,-231.0,23.0,17.0,21.0,14.0,40.0,23.0,8
4.0,28.0,24.0,21.0,10.0,-12.0,11.0,16.0,-29.0,-422.0,12.0,20.0,19.0,19.0,31.0,42.0,8
54.0,44.0,43.0,45.0,45.0,45.0,50.0,47.0,81.0,-167.0,46.0,47.0,51.0,66.0,63.0,30.0,8
24.0,14.0,12.0,13.0,5.0,1.0,10.0,8.0,-13.0,-214.0,3.0,3.0,4.0,2.0,6.0,10.0,8
6.0,16.0,21.0,16.0,13.0,15.0,5.0,13.0,-117.0,-339.0,19.0,17.0,17.0,5.0,28.0,30.0,8
-94.0,16.0,17.0,17.0,14.0,4.0,5.0,2.0,-33.0,-55.0,5.0,3.0,7.0,3.0,7.0,-3.0,8
8.0,7.0,-12.0,-18.0,-37.0,-79.0,-43.0,-8.0,48.0,-90.0,7.0,-11.0,-4.0,4.0,17.0,21.0,8
25.0,34.0,33.0,31.0,31.0,26.0,33.0,31.0,-75.0,-197.0,19.0,23.0,32.0,35.0,62.0,85.0,8
-88.0,-6.0,3.0,7.0,17.0,-10.0,-9.0,-5.0,-37.0,-93.0,3.0,-4.0,-25.0,3.0,9.0,0.0,8
-12.0,-8.0,2.0,8.0,11.0,19.0,-3.0,-12.0,-1.0,19.0,1.0,2.0,5.0,-2.0,-16.0,-10.0,8
18.0,2.0,2.0,2.0,-4.0,-24.0,-14.0,-3.0,23.0,42.0,2.0,15.0,31.0,12.0,6.0,9.0,8
21.0,4.0,3.0,6.0,11.0,30.0,20.0,-3.0,25.0,45.0,2.0,8.0,17.0,28.0,14.0,10.0,8
-27.0,-2.0,-4.0,-6.0,-9.0,-29.0,-7.0,0.0,-54.0,-118.0,-1.0,0.0,-6.0,-23.0,-10.0,-8.0,8
-24.0,-21.0,-22.0,-20.0,-15.0,2.0,-17.0,-28.0,-23.0,-49.0,-17.0,-13.0,-16.0,-32.0,-39.0,-35.0,8
-3.0,-2.0,-2.0,-6.0,-22.0,-39.0,-22.0,-10.0,17.0,-35.0,5.0,-6.0,-10.0,-20.0,-17.0,-4.0,8
