0,1,2,3,4,5,6,7,8,9,10,11,12,13,14,15,16
10.0,-235.0,1.0,-34.0,-40.0,-27.0,-21.0,-29.0,-114.0,-91.0,-174.0,-23.0,-54.0,-82.0,-99.0,-114.0,2
-48.0,151.0,-36.0,-10.0,1.0,7.0,8.0,35.0,-32.0,-20.0,-22.0,0.0,-1.0,-10.0,-16.0,-16.0,2
0.0,-136.0,4.0,1.0,1.0,2.0,0.0,-4.0,5.0,3.0,2.0,-1.0,3.0,8.0,7.0,7.0,2
-62.0,-244.0,-87.0,-120.0,-143.0,-142.0,-112.0,217.0,-125.0,-127.0,-217.0,-51.0,-81.0,-94.0,-78.0,-65.0,2
-24.0,23.0,17.0,27.0,32.0,46.0,38.0,2.0,78.0,57.0,-65.0,36.0,59.0,96.0,93.0,70.0,2
68.0,38.0,-132.0,32.0,38.0,50.0,42.0,134.0,254.0,211.0,417.0,28.0,99.0,175.0,249.0,408.0,2
52.0,234.0,46.0,-22.0,0.0,21.0,10.0,25.0,88.0,82.0,251.0,12.0,27.0,44.0,52.0,60.0,2
39.0,-588.0,87.0,-34.0,-55.0,-32.0,-14.0,0.0,-280.0,-237.0,-339.0,-31.0,-131.0,-239.0,-302.0,-351.0,2
19.0,27.0,5.0,15.0,8.0,6.0,8.0,51.0,15.0,17.0,-3.0,14.0,11.0,8.0,11.0,23.0,2
71.0,-48.0,21.0,3.0,-6.0,10.0,30.0,82.0,76.0,80.0,78.0,0.0,16.0,29.0,59.0,121.0,2
-2.0,-412.0,30.0,-7.0,-2.0,5.0,2.0,-22.0,-1.0,-12.0,-76.0,9.0,2.0,7.0,7.0,-7.0,2
41.0,126.0,-6.0,11.0,-1.0,19.0,19.0,3.0,70.0,70.0,80.0,12.0,31.0,48.0,68.0,103.0,2
22.0,1.0,17.0,14.0,10.0,8.0,11.0,12.0,22.0,24.0,17.0,12.0,6.0,5.0,3.0,6.0,2
-21.0,36.0,-27.0,-11.0,8.0,11.0,8.0,9.0,-31.0,-33.0,-2.0,-4.0,13.0,19.0,21.0,12.0,2
32.0,45.0,34.0,29.0,25.0,24.0,17.0,59.0,41.0,57.0,76.0,24.0,29.0,35.0,35.0,40.0,2
54.0,211.0,19.0,61.0,43.0,43.0,51.0,51.0,62.0,74.0,115.0,52.0,48.0,57.0,57.0,72.0,2
0.0,-169.0,4.0,-3.0,-6.0,-4.0,-5.0,-12.0,8.0,3.0,1.0,-1.0,-1.0,4.0,7.0,7.0,2
-14.0,171.0,-35.0,14.0,18.0,10.0,5.0,12.0,36.0,32.0,88.0,9.0,19.0,32.0,33.0,42.0,2
43.0,-64.0,48.0,-40.0,-17.0,6.0,10.0,-5.0,-5.0,-8.0,-115.0,-2.0,-9.0,-2.0,-17.0,-39.0,2
56.0,-121.0,19.0,25.0,17.0,12.0,12.0,-18.0,35.0,31.0,-5.0,21.0,17.0,16.0,15.0,22.0,2
-28.0,168.0,-7.0,-8.0,-3.0,1.0,2.0,36.0,-37.0,-24.0,-28.0,2.0,-5.0,-14.0,-19.0,-18.0,2
-44.0,-13.0,-4.0,-56.0,-57.0,-41.0,-58.0,-116.0,-82.0,-97.0,-291.0,-35.0,-41.0,-25.0,-50.0,-110.0,2
-68.0,182.0,13.0,-66.0,-92.0,-111.0,-172.0,-245.0,-182.0,-144.0,-278.0,-35.0,-87.0,-129.0,-172.0,-214.0,2
0.0,-97.0,-30.0,-28.0,-21.0,-17.0,-12.0,-12.0,1.0,-9.0,-52.0,-19.0,-13.0,-15.0,-7.0,-3.0,2
-16.0,-1.0,-12.0,-10.0,-7.0,-6.0,-8.0,-11.0,-9.0,-12.0,-18.0,-6.0,-6.0,-4.0,-6.0,-8.0,2
-16.0,-229.0,-15.0,-43.0,-46.0,-30.0,-23.0,-28.0,-121.0,-106.0,-198.0,-36.0,-60.0,-88.0,-106.0,-123.0,2
-5.0,-109.0,14.0,9.0,7.0,2.0,-10.0,-39.0,-7.0,3.0,-10.0,0.0,-3.0,-18.0,-29.0,-34.0,2
-65.0,343.0,25.0,-74.0,-75.0,-69.0,-112.0,-242.0,-146.0,-105.0,-205.0,-52.0,-79.0,-97.0,-130.0,-177.0,2
5.0,31.0,-9.0,7.0,5.0,8.0,23.0,50.0,5.0,10.0,3.0,6.0,3.0,-3.0,4.0,21.0,2
-77.0,195.0,-45.0,-33.0,-25.0,-21.0,-13.0,-4.0,-39.0,-27.0,-41.0,-27.0,-27.0,-49.0,-35.0,-7.0,2
62.0,163.0,12.0,30.0,13.0,32.0,37.0,23.0,94.0,98.0,116.0,34.0,47.0,68.0,89.0,124.0,2
35.0,39.0,53.0,24.0,11.0,8.0,7.0,6.0,35.0,33.0,32.0,18.0,12.0,18.0,19.0,15.0,2
50.0,-251.0,54.0,-26.0,-54.0,-32.0,-3.0,10.0,-138.0,-106.0,-188.0,-36.0,-84.0,-147.0,-156.0,-135.0,2
33.0,-101.0,106.0,-38.0,-14.0,7.0,12.0,-11.0,-103.0,-79.0,-197.0,6.0,-16.0,-43.0,-84.0,-189.0,2
7.0,44.0,21.0,20.0,20.0,17.0,19.0,13.0,28.0,39.0,48.0,19.0,18.0,17.0,17.0,16.0,2
-27.0,253.0,0.0,-3.0,-3.0,-2.0,6.0,23.0,5.0,13.0,-14.0,3.0,-10.0,-37.0,-29.0,3.0,2
-87.0,-151.0,-38.0,-6.0,5.0,9.0,13.0,-15.0,-9.0,-10.0,-18.0,-9.0,-6.0,-18.0,-17.0,-18.0,2
60.0,11.0,7.0,-2.0,-11.0,6.0,26.0,79.0,102.0,101.0,121.0,4.0,25.0,48.0,83.0,141.0,2
-20.0,2.0,-2.0,-11.0,-16.0,-15.0,-22.0,-12.0,-12.0,-9.0,-17.0,-12.0,-13.0,-9.0,-13.0,-17.0,2
14.0,192.0,-4.0,46.0,55.0,45.0,35.0,47.0,64.0,62.0,117.0,39.0,51.0,68.0,66.0,74.0,2
-68.0,-66.0,-61.0,-41.0,-27.0,-21.0,-23.0,-26.0,-31.0,-26.0,-26.0,-28.0,-20.0,-16.0,-14.0,-17.0,2
18.0,-56.0,7.0,-5.0,-9.0,-8.0,-8.0,-12.0,17.0,13.0,14.0,-8.0,-10.0,-12.0,-10.0,-8.0,2
-23.0,90.0,15.0,-1.0,4.0,7.0,1.0,21.0,47.0,40.0,44.0,3.0,12.0,24.0,33.0,34.0,2
-17.0,14.0,19.0,-2.0,-16.0,-22.0,-20.0,6.0,-58.0,-32.0,-14.0,-3.0,-32.0,-61.0,-64.0,-46.0,2
27.0,-77.0,10.0,35.0,29.0,18.0,17.0,-38.0,35.0,32.0,50.0,28.0,27.0,24.0,26.0,32.0,2
4.0,-105.0,16.0,5.0,4.0,1.0,2.0,-24.0,-12.0,-8.0,3.0,0.0,0.0,-2.0,-2.0,-3.0,2
6.0,-41.0,11.0,-3.0,7.0,0.0,-12.0,-33.0,15.0,7.0,4.0,1.0,11.0,12.0,12.0,4.0,2
11.0,32.0,11.0,16.0,19.0,17.0,22.0,20.0,15.0,19.0,37.0,12.0,18.0,20.0,30.0,54.0,2
8.0,-35.0,1.0,-29.0,-12.0,9.0,8.0,-24.0,-13.0,-20.0,-128.0,-6.0,-5.0,4.0,2.0,-7.0,2
-43.0,-73.0,-76.0,-42.0,-24.0,-20.0,-17.0,-10.0,-52.0,-52.0,-57.0,-28.0,-21.0,-17.0,-16.0,-17.0,2
2.0,-14.0,-65.0,-140.0,-1.0,-18.0,-154.0,-216.0,82.0,29.0,98.0,-50.0,66.0,115.0,89.0,43.0,2
-118.0,98.0,-86.0,-32.0,-7.0,-2.0,3.0,2.0,-6.0,-8.0,-15.0,-19.0,-7.0,-8.0,-3.0,4.0,2
-15.0,-41.0,0.0,-30.0,-25.0,-24.0,-25.0,-80.0,-52.0,-46.0,-86.0,-25.0,-36.0,-54.0,-59.0,-76.0,2
-13.0,-46.0,-12.0,-6.0,-1.0,-1.0,-2.0,-20.0,67.0,54.0,36.0,-5.0,10.0,25.0,34.0,38.0,2
196.0,-1503.0,56.0,34.0,19.0,21.0,9.0,-81.0,-66.0,-68.0,-123.0,-2.0,-8.0,-31.0,-48.0,-72.0,2
-23.0,-152.0,-3.0,9.0,36.0,48.0,54.0,-196.0,-73.0,-66.0,-85.0,-16.0,-12.0,-38.0,-54.0,-86.0,2
21.0,-338.0,55.0,4.0,26.0,28.0,34.0,0.0,-10.0,-20.0,-143.0,32.0,27.0,25.0,17.0,-15.0,2
12.0,-355.0,41.0,-106.0,-88.0,-66.0,-37.0,-24.0,-185.0,-161.0,-257.0,-82.0,-129.0,-202.0,-209.0,-176.0,2
28.0,63.0,46.0,25.0,25.0,23.0,20.0,22.0,31.0,34.0,25.0,30.0,24.0,28.0,27.0,28.0,2
-29.0,-25.0,-10.0,-40.0,-21.0,-2.0,1.0,-85.0,-45.0,-60.0,-197.0,-21.0,-20.0,-16.0,-27.0,-44.0,2
59.0,176.0,12.0,33.0,28.0,45.0,68.0,78.0,70.0,87.0,190.0,37.0,36.0,29.0,48.0,95.0,2
8.0,-13.0,39.0,-6.0,-10.0,6.0,1.0,-35.0,14.0,4.0,-99.0,9.0,0.0,19.0,12.0,-10.0,2
13.0,23.0,11.0,8.0,5.0,-4.0,-12.0,22.0,20.0,17.0,26.0,8.0,7.0,16.0,14.0,12.0,2
-22.0,-48.0,-21.0,-32.0,-21.0,-7.0,-10.0,-8.0,-42.0,-40.0,-124.0,-19.0,-17.0,-22.0,-26.0,-40.0,2
9.0,31.0,9.0,2.0,-11.0,-7.0,-13.0,-9.0,11.0,11.0,122.0,-8.0,-13.0,-13.0,-16.0,3.0,2
-37.0,104.0,-42.0,-19.0,-27.0,-29.0,-38.0,-8.0,27.0,35.0,64.0,-24.0,-15.0,-4.0,1.0,14.0,2
-32.0,-24.0,12.0,6.0,50.0,104.0,138.0,-192.0,-133.0,-97.0,-244.0,-5.0,-37.0,-96.0,-136.0,-184.0,2
27.0,132.0,-4.0,21.0,3.0,5.0,21.0,-1.0,44.0,50.0,65.0,6.0,5.0,12.0,45.0,101.0,2
10.0,-5.0,20.0,9.0,2.0,1.0,-1.0,-3.0,7.0,8.0,8.0,8.0,2.0,2.0,2.0,2.0,2
17.0,-308.0,37.0,6.0,7.0,13.0,12.0,-7.0,14.0,3.0,-27.0,15.0,15.0,21.0,21.0,9.0,2
-97.0,167.0,-54.0,-30.0,-35.0,-32.0,-19.0,35.0,-187.0,-146.0,-145.0,-36.0,-88.0,-169.0,-193.0,-182.0,2
38.0,-3.0,13.0,11.0,8.0,7.0,23.0,46.0,8.0,23.0,33.0,10.0,-8.0,-35.0,-28.0,2.0,2
-24.0,-29.0,5.0,-50.0,-38.0,-20.0,-24.0,-59.0,-97.0,-91.0,-193.0,-22.0,-48.0,-67.0,-88.0,-126.0,2
74.0,274.0,181.0,-4.0,44.0,60.0,9.0,-39.0,102.0,83.0,21.0,41.0,59.0,106.0,83.0,16.0,2
8.0,-46.0,19.0,-28.0,-12.0,7.0,3.0,-53.0,59.0,43.0,-95.0,0.0,20.0,61.0,72.0,64.0,2
5.0,-32.0,32.0,-13.0,-7.0,12.0,1.0,-42.0,22.0,6.0,-126.0,4.0,10.0,37.0,32.0,8.0,2
10.0,462.0,-16.0,68.0,74.0,57.0,41.0,122.0,192.0,178.0,277.0,62.0,105.0,172.0,198.0,208.0,2
-7.0,-55.0,0.0,-10.0,-6.0,-4.0,-2.0,-6.0,-15.0,-17.0,-32.0,-3.0,-5.0,-12.0,-12.0,-12.0,2
-23.0,-3.0,32.0,-17.0,-17.0,-2.0,0.0,2.0,-29.0,-27.0,-139.0,6.0,-17.0,-23.0,-25.0,-38.0,2
-9.0,29.0,17.0,4.0,5.0,4.0,-6.0,-7.0,9.0,12.0,3.0,6.0,6.0,10.0,7.0,6.0,2
-62.0,-109.0,26.0,-32.0,-40.0,-23.0,-32.0,-82.0,-132.0,-114.0,-248.0,-13.0,-50.0,-68.0,-99.0,-150.0,2
-130.0,73.0,-89.0,-166.0,-240.0,-283.0,-307.0,-239.0,-240.0,-218.0,-370.0,-104.0,-167.0,-200.0,-216.0,-219.0,2
-4.0,185.0,-27.0,-57.0,-12.0,6.0,-8.0,5.0,49.0,48.0,182.0,-20.0,9.0,25.0,33.0,43.0,2
16.0,-92.0,19.0,7.0,5.0,3.0,5.0,3.0,13.0,10.0,-6.0,5.0,5.0,7.0,11.0,15.0,2
-26.0,116.0,-39.0,4.0,6.0,-7.0,-22.0,18.0,25.0,22.0,64.0,-1.0,12.0,30.0,32.0,39.0,2
-16.0,-261.0,-24.0,-47.0,-51.0,-38.0,-30.0,-37.0,-107.0,-95.0,-175.0,-33.0,-64.0,-93.0,-107.0,-118.0,2
38.0,-36.0,7.0,3.0,17.0,25.0,32.0,11.0,43.0,31.0,33.0,1.0,16.0,18.0,36.0,59.0,2
14.0,109.0,-8.0,60.0,36.0,27.0,26.0,48.0,45.0,50.0,104.0,40.0,34.0,44.0,40.0,52.0,2
8.0,33.0,-6.0,-17.0,-11.0,-9.0,-7.0,-7.0,-1.0,-5.0,-10.0,-16.0,-10.0,-5.0,-1.0,-1.0,2
53.0,-87.0,38.0,4.0,-25.0,-11.0,6.0,25.0,-25.0,-9.0,-61.0,-8.0,-28.0,-56.0,-38.0,0.0,2
17.0,-489.0,49.0,-78.0,-71.0,-48.0,-7.0,-24.0,-144.0,-133.0,-294.0,-58.0,-94.0,-140.0,-151.0,-171.0,2
8.0,25.0,40.0,-28.0,-34.0,-11.0,-9.0,-11.0,-42.0,-38.0,-181.0,-7.0,-32.0,-40.0,-49.0,-66.0,2
10.0,-447.0,69.0,-67.0,-62.0,-38.0,-26.0,-38.0,-125.0,-120.0,-237.0,-42.0,-82.0,-122.0,-132.0,-152.0,2
92.0,152.0,117.0,-54.0,35.0,27.0,-96.0,-150.0,142.0,113.0,167.0,21.0,69.0,95.0,58.0,1.0,2
-23.0,-20.0,-10.0,-4.0,-10.0,-17.0,-34.0,-39.0,-20.0,-16.0,-8.0,-4.0,-7.0,-7.0,-15.0,-27.0,2
-142.0,140.0,-75.0,-41.0,-19.0,-14.0,-7.0,-8.0,-1.0,-5.0,-30.0,-27.0,-18.0,-19.0,-12.0,-2.0,2
7.0,-101.0,-7.0,6.0,8.0,6.0,3.0,10.0,3.0,4.0,7.0,5.0,4.0,0.0,1.0,2.0,2
-122.0,141.0,-42.0,-111.0,-125.0,-131.0,-168.0,-255.0,-202.0,-166.0,-301.0,-63.0,-119.0,-155.0,-190.0,-231.0,2
34.0,-49.0,28.0,-7.0,6.0,31.0,6.0,-5.0,-11.0,-4.0,-30.0,-9.0,5.0,14.0,-9.0,-19.0,2
5.0,-225.0,29.0,11.0,30.0,27.0,17.0,-8.0,-9.0,-18.0,-100.0,23.0,31.0,30.0,18.0,-1.0,2
-5.0,-267.0,-17.0,-36.0,-36.0,-28.0,-17.0,-29.0,-140.0,-107.0,-178.0,-25.0,-61.0,-107.0,-137.0,-171.0,2
-4.0,-113.0,-44.0,-18.0,-12.0,-12.0,-11.0,-20.0,-49.0,-59.0,-56.0,-23.0,-16.0,-16.0,-19.0,-23.0,2
-5.0,-8.0,55.0,-14.0,-27.0,-10.0,-16.0,-65.0,-74.0,-47.0,-74.0,-18.0,-22.0,-12.0,-30.0,-82.0,2
21.0,256.0,-14.0,30.0,36.0,35.0,32.0,32.0,64.0,64.0,125.0,32.0,45.0,56.0,61.0,68.0,2
9.0,1.0,11.0,-25.0,-17.0,4.0,9.0,-52.0,-27.0,-29.0,-150.0,-7.0,-14.0,-12.0,-19.0,-33.0,2
-49.0,245.0,-28.0,-53.0,-38.0,-29.0,-65.0,-157.0,-56.0,-82.0,-246.0,-22.0,-7.0,31.0,2.0,-76.0,2
105.0,431.0,113.0,19.0,23.0,39.0,27.0,30.0,7.0,22.0,-47.0,36.0,24.0,34.0,21.0,-11.0,2
-10.0,128.0,-7.0,29.0,23.0,20.0,5.0,16.0,29.0,32.0,71.0,17.0,30.0,36.0,35.0,31.0,2
6.0,-171.0,40.0,-73.0,-64.0,-46.0,-31.0,14.0,-326.0,-263.0,-301.0,-48.0,-154.0,-280.0,-372.0,-487.0,2
12.0,56.0,7.0,15.0,10.0,10.0,12.0,10.0,27.0,26.0,27.0,12.0,12.0,16.0,22.0,29.0,2
65.0,-1066.0,99.0,-35.0,-36.0,-8.0,25.0,-171.0,-239.0,-224.0,-511.0,-25.0,-97.0,-185.0,-223.0,-270.0,2
-34.0,-18.0,20.0,-35.0,-31.0,-8.0,-7.0,-53.0,-24.0,-34.0,-148.0,-23.0,-29.0,-24.0,-28.0,-39.0,2
23.0,-128.0,-1.0,20.0,16.0,17.0,15.0,-32.0,-27.0,-24.0,-31.0,12.0,6.0,-10.0,-15.0,-22.0,2
4.0,-122.0,49.0,-56.0,-52.0,-26.0,-5.0,-2.0,-140.0,-114.0,-231.0,-33.0,-80.0,-135.0,-149.0,-145.0,2
2.0,468.0,-26.0,46.0,55.0,47.0,32.0,109.0,184.0,167.0,268.0,45.0,88.0,157.0,186.0,204.0,2
-3.0,-31.0,6.0,-8.0,-10.0,-12.0,-15.0,-14.0,-4.0,4.0,-33.0,-4.0,-14.0,-23.0,-25.0,-26.0,2
-26.0,-270.0,-4.0,-37.0,-15.0,5.0,32.0,-72.0,-105.0,-96.0,-162.0,-32.0,-55.0,-93.0,-106.0,-120.0,2
-68.0,-64.0,16.0,-5.0,26.0,68.0,90.0,-170.0,-139.0,-110.0,-221.0,-15.0,-46.0,-100.0,-135.0,-178.0,2
-43.0,-61.0,-94.0,-73.0,-57.0,-38.0,-33.0,-192.0,-101.0,-103.0,-237.0,-56.0,-53.0,-55.0,-70.0,-105.0,2
-58.0,200.0,3.0,5.0,14.0,15.0,20.0,20.0,32.0,29.0,18.0,12.0,12.0,10.0,15.0,27.0,2
-19.0,-172.0,1.0,14.0,51.0,82.0,113.0,-187.0,-54.0,-45.0,-85.0,5.0,1.0,-29.0,-45.0,-68.0,2
-101.0,200.0,-56.0,-81.0,-60.0,-34.0,-37.0,-47.0,-124.0,-112.0,-241.0,-51.0,-64.0,-77.0,-96.0,-138.0,2
-33.0,2.0,-20.0,-19.0,-12.0,-12.0,-20.0,-8.0,0.0,-6.0,-3.0,-8.0,-2.0,11.0,14.0,15.0,2
48.0,408.0,20.0,34.0,35.0,48.0,51.0,113.0,169.0,160.0,242.0,44.0,82.0,129.0,162.0,197.0,2
-66.0,-50.0,-37.0,-56.0,-69.0,-51.0,-34.0,-17.0,-154.0,-153.0,-258.0,-54.0,-90.0,-114.0,-136.0,-183.0,2
-10.0,-114.0,-17.0,-19.0,-19.0,-7.0,15.0,25.0,-56.0,-50.0,-116.0,-10.0,-27.0,-39.0,-39.0,-35.0,2
42.0,-16.0,19.0,8.0,25.0,21.0,17.0,10.0,48.0,41.0,26.0,15.0,31.0,40.0,46.0,49.0,2
66.0,12.0,10.0,1.0,-7.0,9.0,30.0,84.0,104.0,104.0,124.0,7.0,29.0,50.0,85.0,144.0,2
175.0,-1018.0,67.0,48.0,36.0,37.0,37.0,-3.0,-21.0,-19.0,-50.0,25.0,19.0,1.0,-12.0,-29.0,2
-7.0,7.0,1.0,-5.0,1.0,-2.0,-7.0,10.0,-34.0,-28.0,-52.0,1.0,-6.0,-20.0,-26.0,-25.0,2
29.0,252.0,-16.0,32.0,27.0,23.0,25.0,6.0,105.0,102.0,138.0,21.0,55.0,86.0,104.0,119.0,2
25.0,192.0,11.0,6.0,-12.0,-2.0,4.0,6.0,-1.0,11.0,18.0,0.0,-9.0,-7.0,-13.0,1.0,2
11.0,17.0,17.0,22.0,31.0,39.0,62.0,7.0,43.0,37.0,24.0,21.0,35.0,53.0,61.0,51.0,2
-30.0,-103.0,-59.0,-27.0,-13.0,-10.0,-9.0,-9.0,0.0,-8.0,4.0,-20.0,-7.0,-2.0,1.0,6.0,2
36.0,-103.0,33.0,16.0,6.0,3.0,5.0,2.0,0.0,-8.0,-23.0,4.0,2.0,5.0,6.0,11.0,2
-8.0,3.0,-31.0,-28.0,-34.0,-33.0,-29.0,8.0,-18.0,-17.0,-25.0,-21.0,-21.0,-7.0,-4.0,-1.0,2
9.0,0.0,-15.0,-7.0,-6.0,-5.0,-1.0,-1.0,-2.0,9.0,25.0,-11.0,-4.0,0.0,3.0,8.0,2
30.0,36.0,20.0,21.0,23.0,23.0,21.0,23.0,46.0,43.0,50.0,21.0,26.0,38.0,39.0,39.0,2
17.0,-229.0,-18.0,-15.0,-17.0,-16.0,-8.0,1.0,-7.0,-13.0,-17.0,-13.0,-16.0,-18.0,-14.0,-13.0,2
123.0,350.0,154.0,21.0,38.0,51.0,23.0,7.0,151.0,112.0,94.0,50.0,76.0,128.0,137.0,124.0,2
-33.0,16.0,-54.0,-61.0,-67.0,-47.0,-25.0,-8.0,-150.0,-140.0,-252.0,-54.0,-89.0,-111.0,-132.0,-182.0,2
46.0,-49.0,41.0,41.0,29.0,19.0,14.0,-37.0,59.0,64.0,74.0,30.0,26.0,26.0,29.0,33.0,2
-3.0,-147.0,-1.0,4.0,3.0,-2.0,2.0,-3.0,-7.0,-5.0,-24.0,3.0,3.0,2.0,3.0,7.0,2
-15.0,-245.0,14.0,-18.0,2.0,26.0,60.0,-52.0,-117.0,-98.0,-158.0,-15.0,-45.0,-92.0,-112.0,-140.0,2
-70.0,-71.0,-42.0,-50.0,-64.0,-43.0,-21.0,-7.0,-184.0,-164.0,-263.0,-40.0,-83.0,-108.0,-129.0,-174.0,2
44.0,-100.0,27.0,28.0,19.0,13.0,10.0,9.0,29.0,33.0,19.0,20.0,15.0,16.0,15.0,20.0,2
-12.0,-15.0,6.0,-12.0,0.0,8.0,5.0,6.0,-31.0,-23.0,-88.0,-2.0,-1.0,-7.0,-10.0,-23.0,2
-31.0,-192.0,-59.0,-103.0,-132.0,-131.0,-107.0,210.0,-97.0,-102.0,-197.0,-36.0,-73.0,-86.0,-71.0,-58.0,2
19.0,6.0,6.0,-1.0,0.0,2.0,1.0,0.0,27.0,31.0,16.0,3.0,2.0,6.0,3.0,1.0,2
-3.0,50.0,-1.0,2.0,0.0,1.0,8.0,2.0,24.0,20.0,25.0,-2.0,3.0,8.0,21.0,42.0,2
19.0,-70.0,-5.0,-7.0,-10.0,-8.0,-4.0,-5.0,29.0,20.0,10.0,-9.0,-7.0,-4.0,1.0,4.0,2
1.0,-96.0,4.0,4.0,5.0,5.0,2.0,0.0,-20.0,-17.0,-13.0,6.0,3.0,-3.0,-2.0,-3.0,2
-20.0,-104.0,-10.0,6.0,5.0,4.0,7.0,-6.0,15.0,5.0,4.0,-1.0,3.0,5.0,7.0,8.0,2
35.0,54.0,39.0,44.0,46.0,56.0,45.0,0.0,133.0,110.0,8.0,45.0,90.0,147.0,166.0,172.0,2
-71.0,2.0,-20.0,0.0,6.0,6.0,-2.0,-18.0,30.0,14.0,19.0,4.0,10.0,21.0,23.0,16.0,2
10.0,-135.0,13.0,1.0,7.0,8.0,10.0,4.0,21.0,16.0,23.0,4.0,11.0,16.0,20.0,22.0,2
-31.0,134.0,26.0,-67.0,-76.0,-53.0,-39.0,-27.0,-163.0,-154.0,-267.0,-48.0,-87.0,-102.0,-128.0,-190.0,2
-5.0,-77.0,14.0,12.0,28.0,45.0,55.0,-51.0,-2.0,-10.0,-63.0,7.0,16.0,21.0,10.0,-22.0,2
2.0,-96.0,7.0,3.0,4.0,2.0,0.0,1.0,-18.0,-17.0,-17.0,4.0,1.0,-4.0,-4.0,-3.0,2
-50.0,52.0,-38.0,-20.0,-14.0,-16.0,-19.0,13.0,-26.0,-16.0,-17.0,-12.0,-15.0,-23.0,-28.0,-24.0,2
23.0,-131.0,39.0,-46.0,-41.0,-26.0,-19.0,-33.0,-31.0,-34.0,-118.0,-33.0,-39.0,-41.0,-41.0,-37.0,2
8.0,-643.0,59.0,-62.0,-47.0,-25.0,0.0,-8.0,-212.0,-190.0,-334.0,-35.0,-96.0,-167.0,-211.0,-295.0,2
3.0,-115.0,22.0,-55.0,-58.0,-33.0,-12.0,-14.0,-115.0,-95.0,-206.0,-39.0,-78.0,-118.0,-127.0,-110.0,2
27.0,-167.0,11.0,12.0,25.0,31.0,40.0,15.0,8.0,2.0,-11.0,7.0,17.0,7.0,7.0,6.0,2
25.0,11.0,15.0,21.0,16.0,10.0,-3.0,12.0,67.0,52.0,50.0,17.0,31.0,52.0,56.0,34.0,2
64.0,177.0,19.0,-34.0,-3.0,20.0,-5.0,82.0,299.0,193.0,208.0,19.0,91.0,213.0,309.0,464.0,2
14.0,-257.0,25.0,6.0,7.0,10.0,7.0,-8.0,15.0,8.0,-8.0,10.0,9.0,19.0,18.0,12.0,2
6.0,-50.0,2.0,3.0,0.0,-1.0,3.0,15.0,6.0,6.0,18.0,6.0,0.0,0.0,3.0,10.0,2
11.0,260.0,-31.0,14.0,24.0,21.0,21.0,12.0,51.0,55.0,110.0,19.0,37.0,45.0,48.0,57.0,2
19.0,-13.0,25.0,5.0,8.0,0.0,-8.0,-32.0,47.0,46.0,37.0,3.0,8.0,12.0,13.0,12.0,2
37.0,-73.0,20.0,34.0,54.0,66.0,66.0,-17.0,3.0,6.0,-37.0,35.0,32.0,9.0,-4.0,-21.0,2
66.0,-86.0,21.0,-2.0,-8.0,6.0,24.0,73.0,57.0,62.0,50.0,-7.0,8.0,14.0,40.0,102.0,2
15.0,122.0,-1.0,30.0,37.0,30.0,18.0,-4.0,104.0,86.0,128.0,32.0,61.0,92.0,110.0,113.0,2
27.0,38.0,29.0,16.0,3.0,-1.0,-2.0,2.0,45.0,34.0,28.0,5.0,4.0,8.0,8.0,12.0,2
15.0,17.0,14.0,11.0,10.0,10.0,10.0,5.0,14.0,14.0,10.0,12.0,9.0,10.0,9.0,8.0,2
-11.0,34.0,-9.0,-13.0,-14.0,-14.0,-7.0,3.0,-29.0,-25.0,-18.0,-12.0,-20.0,-29.0,-30.0,-24.0,2
77.0,141.0,-5.0,64.0,78.0,63.0,43.0,69.0,306.0,317.0,717.0,44.0,126.0,187.0,207.0,245.0,2
-55.0,-132.0,-15.0,-23.0,-19.0,-16.0,5.0,13.0,-54.0,-62.0,-103.0,-10.0,-20.0,-28.0,-21.0,-8.0,2
-76.0,197.0,-65.0,-38.0,-31.0,-27.0,-9.0,15.0,-65.0,-55.0,-77.0,-34.0,-45.0,-76.0,-65.0,-30.0,2
25.0,43.0,3.0,9.0,19.0,21.0,17.0,34.0,47.0,40.0,35.0,17.0,27.0,45.0,49.0,51.0,2
-27.0,2.0,-22.0,-18.0,-12.0,-11.0,-16.0,-4.0,6.0,-2.0,-1.0,-8.0,1.0,13.0,18.0,21.0,2
-6.0,4.0,4.0,-17.0,-19.0,-8.0,-5.0,-120.0,-55.0,-49.0,-168.0,-1.0,-13.0,-15.0,-32.0,-60.0,2
33.0,-160.0,2.0,8.0,1.0,0.0,8.0,15.0,1.0,-1.0,-8.0,2.0,-3.0,-7.0,-5.0,0.0,2
35.0,-90.0,8.0,-18.0,-18.0,-11.0,-7.0,-54.0,4.0,0.0,-25.0,-28.0,-22.0,-35.0,-35.0,-39.0,2
42.0,301.0,-5.0,41.0,51.0,51.0,50.0,37.0,76.0,83.0,132.0,43.0,59.0,68.0,72.0,82.0,2
11.0,-162.0,-16.0,0.0,-2.0,-1.0,4.0,3.0,4.0,6.0,8.0,-4.0,-1.0,-5.0,-4.0,5.0,2
20.0,59.0,66.0,19.0,23.0,22.0,13.0,23.0,-4.0,-5.0,-29.0,17.0,11.0,-2.0,-8.0,-6.0,2
31.0,-97.0,101.0,-39.0,-14.0,8.0,12.0,-12.0,-37.0,-45.0,-179.0,7.0,-5.0,-11.0,-19.0,-48.0,2
19.0,34.0,27.0,23.0,21.0,16.0,10.0,14.0,28.0,25.0,42.0,30.0,21.0,24.0,20.0,19.0,2
-49.0,-39.0,-52.0,-32.0,-25.0,-25.0,-22.0,-23.0,-24.0,-29.0,-23.0,-32.0,-21.0,-21.0,-18.0,-16.0,2
14.0,287.0,-9.0,30.0,42.0,41.0,37.0,34.0,107.0,98.0,183.0,38.0,64.0,102.0,111.0,120.0,2
-51.0,-62.0,-26.0,-9.0,33.0,67.0,74.0,-61.0,-126.0,-101.0,-169.0,-6.0,-21.0,-65.0,-92.0,-128.0,2
-9.0,-21.0,-36.0,-2.0,16.0,20.0,14.0,17.0,2.0,-9.0,-5.0,0.0,21.0,35.0,37.0,34.0,2
19.0,-50.0,-1.0,-12.0,11.0,24.0,34.0,-50.0,-63.0,-66.0,-118.0,-12.0,-19.0,-45.0,-57.0,-73.0,2
1.0,57.0,2.0,14.0,20.0,17.0,20.0,22.0,-4.0,1.0,18.0,19.0,17.0,17.0,16.0,17.0,2
24.0,193.0,-18.0,19.0,0.0,3.0,11.0,14.0,23.0,35.0,69.0,10.0,4.0,13.0,11.0,31.0,2
25.0,25.0,5.0,1.0,-1.0,-14.0,-7.0,9.0,63.0,78.0,253.0,-5.0,5.0,10.0,11.0,36.0,2
-6.0,1.0,-9.0,-6.0,-4.0,-4.0,-4.0,-7.0,-4.0,-4.0,-6.0,-2.0,-3.0,-2.0,-1.0,-5.0,2
-1.0,30.0,11.0,-5.0,-11.0,-11.0,-8.0,10.0,1.0,2.0,-10.0,-9.0,-7.0,0.0,13.0,30.0,2
-1.0,50.0,-27.0,25.0,27.0,17.0,17.0,12.0,90.0,80.0,158.0,17.0,42.0,72.0,87.0,96.0,2
17.0,10.0,-12.0,12.0,-5.0,-1.0,17.0,5.0,18.0,29.0,41.0,1.0,2.0,-7.0,17.0,76.0,2
47.0,53.0,39.0,17.0,12.0,12.0,6.0,9.0,23.0,21.0,5.0,16.0,15.0,19.0,20.0,29.0,2
-59.0,-76.0,-64.0,-75.0,-49.0,-33.0,-28.0,-82.0,-84.0,-81.0,-160.0,-54.0,-56.0,-74.0,-81.0,-101.0,2
-109.0,761.0,47.0,-75.0,-70.0,-36.0,55.0,-133.0,-146.0,-130.0,-281.0,-58.0,-102.0,-143.0,-153.0,-180.0,2
-20.0,-141.0,-13.0,-31.0,-25.0,-18.0,-8.0,-5.0,-47.0,-45.0,-113.0,-32.0,-32.0,-44.0,-45.0,-40.0,2
8.0,2.0,10.0,16.0,22.0,19.0,19.0,25.0,0.0,2.0,-39.0,17.0,14.0,6.0,7.0,20.0,2
33.0,-61.0,41.0,-4.0,-12.0,11.0,12.0,4.0,-49.0,-35.0,-116.0,-10.0,-28.0,-43.0,-54.0,-39.0,2
36.0,34.0,72.0,23.0,10.0,2.0,-10.0,26.0,-1.0,4.0,23.0,18.0,17.0,26.0,25.0,18.0,2
-24.0,-260.0,-70.0,-62.0,-55.0,-38.0,-13.0,8.0,-132.0,-119.0,-184.0,-49.0,-77.0,-129.0,-132.0,-113.0,2
-42.0,-10.0,55.0,-36.0,-10.0,12.0,4.0,-31.0,-17.0,-37.0,-179.0,1.0,8.0,25.0,17.0,-57.0,2
14.0,-177.0,65.0,-61.0,-36.0,-17.0,-12.0,-5.0,-134.0,-121.0,-216.0,-29.0,-66.0,-107.0,-147.0,-227.0,2
-31.0,-92.0,-81.0,-50.0,-20.0,-18.0,-20.0,-41.0,-29.0,-34.0,-28.0,-35.0,-13.0,-6.0,0.0,-3.0,2
44.0,179.0,19.0,44.0,51.0,43.0,32.0,7.0,84.0,84.0,136.0,26.0,48.0,67.0,71.0,78.0,2
-18.0,114.0,-2.0,1.0,11.0,12.0,5.0,19.0,42.0,34.0,41.0,0.0,17.0,31.0,38.0,39.0,2
-17.0,5.0,-24.0,-19.0,-8.0,-6.0,-8.0,8.0,20.0,6.0,-15.0,-8.0,4.0,21.0,26.0,29.0,2
38.0,-89.0,80.0,-26.0,-20.0,1.0,26.0,31.0,-112.0,-83.0,-202.0,-4.0,-51.0,-104.0,-122.0,-117.0,2
19.0,5.0,32.0,0.0,-1.0,8.0,6.0,-20.0,-15.0,-13.0,-91.0,5.0,-5.0,-2.0,-17.0,-39.0,2
-59.0,86.0,-11.0,29.0,37.0,30.0,25.0,-3.0,41.0,35.0,83.0,18.0,35.0,55.0,64.0,70.0,2
8.0,21.0,39.0,-44.0,-36.0,-18.0,-24.0,-81.0,-83.0,-79.0,-188.0,-18.0,-40.0,-49.0,-73.0,-129.0,2
41.0,40.0,56.0,-10.0,-8.0,12.0,15.0,19.0,-36.0,-30.0,-159.0,12.0,-8.0,-18.0,-26.0,-42.0,2
-9.0,-5.0,-12.0,-27.0,-16.0,-9.0,-5.0,-5.0,-47.0,-42.0,-89.0,-19.0,-18.0,-21.0,-21.0,-31.0,2
15.0,567.0,6.0,-18.0,20.0,63.0,85.0,231.0,72.0,55.0,59.0,35.0,46.0,99.0,102.0,79.0,2
-24.0,-7.0,-27.0,-26.0,-19.0,-20.0,-26.0,-28.0,-21.0,-27.0,-45.0,-19.0,-20.0,-18.0,-21.0,-20.0,2
-26.0,10.0,-24.0,-13.0,-8.0,-3.0,3.0,-8.0,-27.0,-28.0,-19.0,-13.0,-9.0,-12.0,-12.0,-12.0,2
41.0,225.0,4.0,29.0,11.0,15.0,25.0,24.0,29.0,45.0,70.0,25.0,13.0,17.0,15.0,35.0,2
-11.0,-51.0,-10.0,-8.0,6.0,6.0,3.0,-20.0,32.0,24.0,18.0,0.0,11.0,19.0,25.0,25.0,2
33.0,29.0,23.0,21.0,43.0,55.0,68.0,-44.0,-12.0,-6.0,-24.0,22.0,12.0,-6.0,-19.0,-40.0,2
34.0,-134.0,-13.0,-8.0,-9.0,-8.0,-5.0,-11.0,-11.0,-16.0,-25.0,-7.0,-4.0,-2.0,0.0,2.0,2
-23.0,-13.0,-37.0,-12.0,-7.0,-7.0,-7.0,32.0,-21.0,-25.0,-46.0,-9.0,-6.0,-11.0,-9.0,0.0,2
6.0,64.0,13.0,-2.0,-3.0,-7.0,-6.0,4.0,-21.0,-17.0,8.0,-2.0,-2.0,-5.0,-6.0,-1.0,2
21.0,-257.0,33.0,-91.0,-64.0,-54.0,-27.0,-24.0,-103.0,-90.0,-178.0,-64.0,-91.0,-129.0,-123.0,-89.0,2
-5.0,-107.0,25.0,9.0,4.0,1.0,1.0,1.0,-15.0,-2.0,-7.0,1.0,6.0,6.0,8.0,7.0,2
2.0,135.0,8.0,-6.0,-4.0,-12.0,-18.0,-2.0,12.0,9.0,-10.0,-4.0,6.0,17.0,9.0,-10.0,2
14.0,19.0,52.0,-28.0,-17.0,3.0,-1.0,-46.0,-61.0,-57.0,-169.0,0.0,-23.0,-37.0,-59.0,-107.0,2
23.0,161.0,12.0,36.0,29.0,23.0,10.0,37.0,57.0,58.0,93.0,26.0,36.0,47.0,51.0,62.0,2
37.0,170.0,-9.0,6.0,6.0,29.0,45.0,57.0,26.0,48.0,141.0,10.0,10.0,-2.0,7.0,54.0,2
5.0,20.0,27.0,13.0,0.0,11.0,-7.0,-59.0,2.0,4.0,-2.0,2.0,7.0,22.0,6.0,-39.0,2
37.0,43.0,47.0,27.0,5.0,16.0,2.0,-37.0,48.0,40.0,43.0,18.0,19.0,38.0,29.0,-8.0,2
-4.0,-555.0,42.0,-67.0,-70.0,-47.0,-37.0,-47.0,-162.0,-152.0,-254.0,-49.0,-96.0,-146.0,-170.0,-204.0,2
-21.0,-31.0,-31.0,-32.0,-22.0,-23.0,-22.0,-51.0,-54.0,-50.0,-76.0,-26.0,-31.0,-45.0,-50.0,-61.0,2
-19.0,21.0,-19.0,-20.0,-21.0,-22.0,-23.0,-15.0,-50.0,-38.0,-31.0,-19.0,-30.0,-43.0,-54.0,-58.0,2
-32.0,-9.0,14.0,8.0,27.0,39.0,45.0,-83.0,-4.0,-7.0,-41.0,4.0,-3.0,-23.0,-33.0,-48.0,2
-20.0,522.0,82.0,-16.0,-14.0,14.0,-2.0,-26.0,-4.0,14.0,-60.0,18.0,-11.0,2.0,-17.0,-55.0,2
-31.0,-35.0,-37.0,-55.0,-41.0,-25.0,-28.0,-68.0,-67.0,-66.0,-158.0,-34.0,-47.0,-64.0,-78.0,-107.0,2
8.0,-243.0,-22.0,-19.0,-20.0,-20.0,-19.0,-12.0,0.0,-9.0,-30.0,-18.0,-19.0,-24.0,-23.0,-25.0,2
-21.0,-7.0,-18.0,-13.0,-9.0,-11.0,-18.0,-19.0,-20.0,-22.0,-32.0,-8.0,-12.0,-10.0,-13.0,-14.0,2
-79.0,-178.0,-43.0,-18.0,-13.0,-10.0,-5.0,-17.0,-46.0,-37.0,-80.0,-14.0,-19.0,-30.0,-27.0,-24.0,2
18.0,-126.0,89.0,-58.0,-41.0,-18.0,-15.0,-20.0,-179.0,-153.0,-258.0,-16.0,-73.0,-134.0,-187.0,-263.0,2
-40.0,62.0,1.0,-43.0,-2.0,66.0,140.0,-337.0,-185.0,-171.0,-320.0,-47.0,-85.0,-140.0,-178.0,-234.0,2
46.0,-103.0,10.0,36.0,78.0,95.0,112.0,-149.0,-21.0,-18.0,-44.0,18.0,29.0,3.0,-11.0,-37.0,2
-7.0,9.0,1.0,-18.0,1.0,8.0,12.0,10.0,-13.0,-18.0,-76.0,-2.0,2.0,0.0,2.0,-7.0,2
-9.0,-163.0,-8.0,5.0,1.0,-4.0,-8.0,-82.0,-6.0,-3.0,1.0,0.0,-1.0,-4.0,-7.0,-7.0,2
27.0,256.0,85.0,5.0,10.0,29.0,24.0,-23.0,52.0,37.0,-154.0,25.0,34.0,69.0,68.0,30.0,2
-3.0,-39.0,-11.0,2.0,0.0,-3.0,-6.0,23.0,22.0,25.0,33.0,6.0,6.0,2.0,7.0,11.0,2
0.0,39.0,20.0,17.0,17.0,19.0,20.0,24.0,4.0,-1.0,14.0,23.0,19.0,22.0,20.0,18.0,2
-47.0,-60.0,-45.0,-22.0,-2.0,13.0,37.0,-32.0,-7.0,-16.0,-27.0,-23.0,0.0,21.0,27.0,16.0,2
20.0,298.0,-1.0,25.0,18.0,31.0,74.0,27.0,45.0,54.0,50.0,11.0,22.0,29.0,40.0,51.0,2
-54.0,-156.0,-19.0,6.0,38.0,53.0,59.0,-146.0,-34.0,-37.0,-61.0,-8.0,-1.0,-23.0,-33.0,-56.0,2
32.0,-32.0,21.0,-20.0,-32.0,-18.0,-6.0,-14.0,-32.0,-18.0,-81.0,-20.0,-34.0,-52.0,-56.0,-56.0,2
6.0,-6.0,29.0,10.0,0.0,-6.0,-5.0,0.0,-11.0,-13.0,-9.0,7.0,-2.0,-7.0,-8.0,-5.0,2
49.0,21.0,42.0,12.0,14.0,12.0,21.0,-6.0,5.0,10.0,-34.0,17.0,2.0,-10.0,-11.0,-20.0,2
-91.0,-79.0,-30.0,-29.0,-30.0,-29.0,-28.0,-49.0,15.0,8.0,-5.0,-27.0,-16.0,0.0,11.0,14.0,2
5.0,89.0,-25.0,-21.0,-7.0,-3.0,0.0,26.0,15.0,1.0,-2.0,-15.0,0.0,12.0,23.0,23.0,2
6.0,-347.0,57.0,-80.0,-70.0,-49.0,-33.0,-51.0,-90.0,-91.0,-217.0,-55.0,-78.0,-100.0,-103.0,-105.0,2
40.0,176.0,5.0,21.0,25.0,19.0,23.0,4.0,87.0,82.0,83.0,14.0,40.0,58.0,80.0,100.0,2
32.0,22.0,11.0,-10.0,-16.0,-9.0,7.0,5.0,-63.0,-32.0,-45.0,-5.0,-32.0,-69.0,-78.0,-66.0,2
25.0,27.0,47.0,-9.0,-12.0,4.0,6.0,-96.0,-27.0,-26.0,-166.0,5.0,-14.0,-16.0,-27.0,-50.0,2
-11.0,483.0,37.0,-19.0,-1.0,28.0,15.0,-20.0,-20.0,-13.0,-86.0,19.0,-4.0,7.0,-11.0,-48.0,2
54.0,55.0,30.0,22.0,20.0,34.0,33.0,-2.0,64.0,40.0,-71.0,27.0,46.0,89.0,92.0,73.0,2
-6.0,164.0,11.0,11.0,11.0,7.0,0.0,23.0,34.0,34.0,72.0,12.0,17.0,29.0,30.0,29.0,2
-37.0,103.0,-81.0,-21.0,-5.0,-8.0,-20.0,16.0,-12.0,-10.0,64.0,-16.0,0.0,7.0,10.0,27.0,2
-9.0,13.0,-21.0,-11.0,-12.0,-12.0,-8.0,-5.0,-32.0,-31.0,-15.0,-15.0,-15.0,-16.0,-15.0,-14.0,2
-54.0,-22.0,-24.0,-43.0,-35.0,-33.0,-37.0,-14.0,-77.0,-74.0,-85.0,-31.0,-37.0,-47.0,-49.0,-44.0,2
33.0,-60.0,35.0,29.0,29.0,26.0,26.0,2.0,18.0,20.0,19.0,21.0,22.0,23.0,21.0,19.0,2
19.0,-204.0,17.0,14.0,0.0,-4.0,-5.0,-4.0,-14.0,-10.0,-12.0,14.0,-3.0,-12.0,-14.0,-18.0,2
29.0,42.0,42.0,-9.0,-1.0,19.0,18.0,17.0,-23.0,-18.0,-137.0,19.0,0.0,-10.0,-17.0,-32.0,2
-6.0,-7.0,-49.0,-8.0,-1.0,-2.0,1.0,9.0,3.0,-2.0,17.0,-6.0,2.0,11.0,12.0,12.0,2
0.0,41.0,16.0,5.0,3.0,1.0,0.0,-2.0,16.0,20.0,25.0,6.0,3.0,5.0,3.0,5.0,2
-132.0,-78.0,-45.0,-44.0,-30.0,-29.0,-25.0,-25.0,-1.0,-24.0,-91.0,-29.0,-29.0,-33.0,-29.0,-30.0,2
13.0,21.0,15.0,17.0,27.0,36.0,62.0,12.0,45.0,37.0,24.0,20.0,30.0,49.0,58.0,51.0,2
10.0,58.0,-12.0,37.0,42.0,30.0,25.0,19.0,104.0,97.0,165.0,32.0,58.0,91.0,106.0,111.0,2
37.0,-148.0,34.0,7.0,-4.0,2.0,19.0,34.0,-64.0,-43.0,-91.0,12.0,-27.0,-70.0,-74.0,-58.0,2
-20.0,51.0,-10.0,-4.0,-7.0,-12.0,-21.0,-12.0,23.0,13.0,11.0,-7.0,-1.0,10.0,10.0,11.0,2
16.0,-81.0,25.0,-39.0,-41.0,-28.0,-20.0,-34.0,-25.0,-27.0,-101.0,-35.0,-37.0,-33.0,-29.0,-25.0,2
38.0,53.0,40.0,-21.0,-21.0,1.0,3.0,-11.0,-22.0,-27.0,-175.0,-3.0,-14.0,-8.0,-18.0,-41.0,2
31.0,59.0,50.0,29.0,17.0,16.0,21.0,23.0,14.0,21.0,32.0,21.0,14.0,17.0,18.0,17.0,2
29.0,100.0,-11.0,52.0,37.0,32.0,43.0,41.0,94.0,95.0,212.0,32.0,46.0,68.0,81.0,105.0,2
-1.0,-31.0,-5.0,-7.0,-10.0,-10.0,-12.0,-14.0,-8.0,-9.0,-10.0,-7.0,-10.0,-10.0,-12.0,-12.0,2
-69.0,-49.0,-32.0,-83.0,-62.0,-44.0,-60.0,-108.0,-96.0,-114.0,-231.0,-50.0,-61.0,-67.0,-89.0,-140.0,2
5.0,-59.0,-7.0,-5.0,-6.0,-7.0,-8.0,-6.0,1.0,-2.0,3.0,-7.0,-6.0,-6.0,-5.0,-6.0,2
9.0,16.0,-6.0,-8.0,-12.0,-13.0,-14.0,-9.0,4.0,5.0,-5.0,-9.0,-9.0,-6.0,-9.0,-7.0,2
-40.0,-12.0,-37.0,-18.0,-14.0,-13.0,-14.0,-14.0,-24.0,-23.0,-7.0,-17.0,-13.0,-11.0,-12.0,-13.0,2
14.0,289.0,-10.0,32.0,44.0,46.0,41.0,38.0,109.0,98.0,184.0,35.0,65.0,104.0,113.0,124.0,2
-8.0,-153.0,-45.0,-57.0,-53.0,-46.0,-28.0,-14.0,-74.0,-73.0,-130.0,-39.0,-55.0,-68.0,-66.0,-57.0,2
-33.0,251.0,4.0,-86.0,-190.0,-346.0,-800.0,50.0,-10.0,-33.0,-106.0,-4.0,-10.0,62.0,53.0,38.0,2
-122.0,101.0,-85.0,-34.0,-8.0,-3.0,4.0,2.0,4.0,-4.0,-20.0,-22.0,-8.0,-8.0,-2.0,6.0,2
-48.0,58.0,-34.0,-15.0,-10.0,-12.0,-7.0,17.0,-25.0,-23.0,-3.0,-18.0,-11.0,-15.0,-7.0,9.0,2
43.0,51.0,60.0,45.0,30.0,41.0,21.0,-20.0,66.0,59.0,56.0,36.0,39.0,57.0,47.0,8.0,2
13.0,44.0,-3.0,-5.0,3.0,2.0,0.0,11.0,33.0,29.0,31.0,1.0,7.0,17.0,17.0,20.0,2
-2.0,1.0,0.0,-3.0,-5.0,-4.0,-9.0,-13.0,-1.0,-1.0,-4.0,-1.0,-4.0,-4.0,-5.0,-8.0,2
-4.0,31.0,19.0,19.0,17.0,9.0,3.0,5.0,32.0,16.0,15.0,21.0,37.0,66.0,64.0,47.0,2
40.0,190.0,-6.0,2.0,-8.0,14.0,39.0,63.0,-6.0,25.0,104.0,5.0,-12.0,-44.0,-35.0,14.0,2
20.0,271.0,26.0,-31.0,-27.0,-35.0,-120.0,-35.0,120.0,88.0,29.0,41.0,74.0,166.0,171.0,134.0,2
60.0,35.0,34.0,40.0,39.0,40.0,40.0,23.0,70.0,72.0,62.0,38.0,37.0,40.0,39.0,36.0,2
-24.0,-18.0,10.0,-13.0,-35.0,-16.0,4.0,19.0,-122.0,-102.0,-209.0,-8.0,-57.0,-84.0,-101.0,-145.0,2
13.0,31.0,22.0,3.0,4.0,8.0,11.0,7.0,12.0,9.0,17.0,5.0,4.0,5.0,7.0,9.0,2
2.0,-53.0,4.0,-7.0,-4.0,-5.0,-5.0,-3.0,13.0,8.0,4.0,-7.0,0.0,4.0,11.0,12.0,2
6.0,-33.0,7.0,1.0,-1.0,-3.0,-2.0,0.0,1.0,0.0,-5.0,1.0,0.0,-2.0,-2.0,-1.0,2
29.0,64.0,52.0,25.0,20.0,16.0,14.0,15.0,27.0,29.0,41.0,25.0,20.0,22.0,21.0,23.0,2
17.0,-141.0,-3.0,4.0,-6.0,-6.0,-3.0,-5.0,-11.0,-5.0,9.0,-8.0,-9.0,-13.0,-10.0,-6.0,2
18.0,-151.0,4.0,9.0,-6.0,-5.0,5.0,12.0,7.0,11.0,19.0,0.0,-5.0,-7.0,-2.0,5.0,2
-18.0,3.0,10.0,4.0,-4.0,-8.0,-16.0,-17.0,8.0,12.0,12.0,0.0,-1.0,7.0,2.0,0.0,2
-12.0,29.0,49.0,18.0,13.0,13.0,12.0,7.0,9.0,24.0,45.0,20.0,12.0,12.0,11.0,13.0,2
-4.0,-16.0,1.0,7.0,13.0,11.0,13.0,21.0,13.0,14.0,11.0,15.0,14.0,17.0,16.0,18.0,2
-10.0,-204.0,50.0,-56.0,-41.0,-22.0,-16.0,-26.0,-54.0,-64.0,-171.0,-28.0,-37.0,-35.0,-44.0,-92.0,2
-12.0,-56.0,-7.0,-29.0,-17.0,-10.0,-7.0,-73.0,-62.0,-52.0,-99.0,-18.0,-29.0,-44.0,-50.0,-70.0,2
25.0,58.0,15.0,4.0,12.0,12.0,16.0,16.0,18.0,19.0,33.0,9.0,15.0,15.0,17.0,18.0,2
-9.0,-16.0,-40.0,-8.0,-5.0,-5.0,-1.0,-4.0,-10.0,-13.0,-6.0,-11.0,-6.0,-4.0,-3.0,0.0,2
5.0,-198.0,46.0,-9.0,-23.0,-10.0,15.0,40.0,-163.0,-148.0,-208.0,-18.0,-73.0,-144.0,-167.0,-161.0,2
5.0,197.0,10.0,29.0,33.0,26.0,10.0,44.0,34.0,32.0,112.0,28.0,37.0,43.0,43.0,61.0,2
16.0,-39.0,-14.0,-1.0,3.0,6.0,21.0,47.0,-63.0,-53.0,-25.0,-6.0,-21.0,-55.0,-52.0,-29.0,2
-20.0,229.0,38.0,-20.0,-13.0,2.0,-13.0,-61.0,-8.0,-21.0,-185.0,6.0,16.0,51.0,52.0,19.0,2
-27.0,142.0,40.0,-48.0,4.0,29.0,-12.0,-45.0,-3.0,-33.0,-104.0,-6.0,12.0,45.0,15.0,-65.0,2
31.0,176.0,22.0,56.0,58.0,54.0,46.0,13.0,130.0,121.0,149.0,52.0,84.0,118.0,138.0,156.0,2
-8.0,4.0,1.0,-3.0,-3.0,-1.0,-1.0,-4.0,-4.0,-4.0,-4.0,-5.0,-1.0,1.0,2.0,0.0,2
-25.0,-34.0,-13.0,-17.0,-18.0,-18.0,-22.0,-18.0,-27.0,-24.0,-27.0,-14.0,-16.0,-15.0,-19.0,-19.0,2
35.0,-6.0,27.0,21.0,16.0,15.0,17.0,20.0,17.0,19.0,14.0,20.0,16.0,14.0,15.0,18.0,2
-20.0,-45.0,-20.0,-17.0,-4.0,-8.0,-8.0,-22.0,3.0,1.0,-5.0,-10.0,-3.0,0.0,3.0,5.0,2
32.0,-108.0,54.0,25.0,4.0,-3.0,-3.0,-3.0,7.0,10.0,29.0,12.0,0.0,-6.0,-6.0,0.0,2
-24.0,-47.0,-32.0,-29.0,-1.0,19.0,64.0,-83.0,-36.0,-39.0,-69.0,-17.0,-24.0,-39.0,-42.0,-52.0,2
-2.0,-112.0,1.0,-39.0,-46.0,-22.0,-4.0,14.0,-73.0,-67.0,-144.0,-25.0,-48.0,-63.0,-63.0,-64.0,2
-110.0,-83.0,-57.0,-90.0,-86.0,-65.0,-58.0,-78.0,-202.0,-186.0,-319.0,-63.0,-94.0,-136.0,-163.0,-206.0,2
-11.0,236.0,-24.0,35.0,40.0,31.0,17.0,5.0,91.0,80.0,147.0,25.0,51.0,89.0,95.0,105.0,2
29.0,9.0,32.0,8.0,12.0,13.0,13.0,-21.0,-1.0,2.0,-33.0,14.0,4.0,-9.0,-15.0,-27.0,2
-15.0,-24.0,-10.0,-18.0,-17.0,-13.0,-10.0,-7.0,-43.0,-39.0,-82.0,-15.0,-24.0,-34.0,-39.0,-41.0,2
-22.0,-39.0,-24.0,-52.0,-39.0,-17.0,-20.0,-23.0,-71.0,-62.0,-160.0,-24.0,-37.0,-44.0,-49.0,-66.0,2
-6.0,14.0,-2.0,-14.0,-17.0,-16.0,-16.0,-14.0,-9.0,-12.0,-17.0,-15.0,-16.0,-13.0,-13.0,-13.0,2
71.0,73.0,32.0,-156.0,-212.0,-192.0,-224.0,-203.0,159.0,130.0,268.0,-29.0,5.0,62.0,66.0,69.0,2
34.0,-103.0,-15.0,-18.0,-17.0,-16.0,-14.0,-36.0,-10.0,-17.0,-17.0,-20.0,-17.0,-15.0,-11.0,-11.0,2
-4.0,-198.0,50.0,-74.0,-47.0,-26.0,-17.0,-26.0,-62.0,-72.0,-189.0,-39.0,-47.0,-48.0,-58.0,-113.0,2
-52.0,-19.0,-60.0,-42.0,-45.0,-45.0,-30.0,7.0,-151.0,-126.0,-80.0,-47.0,-69.0,-113.0,-120.0,-103.0,2
12.0,274.0,-5.0,12.0,-8.0,-6.0,0.0,-28.0,31.0,36.0,23.0,2.0,8.0,15.0,23.0,35.0,2
11.0,113.0,-19.0,24.0,10.0,12.0,30.0,35.0,50.0,62.0,121.0,13.0,15.0,21.0,39.0,69.0,2
-81.0,180.0,-80.0,-47.0,-28.0,-20.0,-12.0,-3.0,-32.0,-29.0,-45.0,-39.0,-29.0,-39.0,-27.0,1.0,2
-5.0,-4.0,-16.0,-15.0,-9.0,-6.0,-8.0,-5.0,21.0,11.0,10.0,-14.0,-2.0,13.0,18.0,18.0,2
-1.0,-6.0,-1.0,-12.0,-12.0,-7.0,1.0,8.0,-30.0,-32.0,-74.0,-9.0,-18.0,-28.0,-27.0,-24.0,2
4.0,1.0,5.0,9.0,15.0,19.0,28.0,15.0,5.0,8.0,14.0,8.0,14.0,17.0,13.0,4.0,2
45.0,23.0,21.0,-6.0,-3.0,10.0,16.0,20.0,12.0,7.0,-81.0,8.0,-3.0,-8.0,-8.0,-18.0,2
45.0,-33.0,21.0,17.0,32.0,37.0,49.0,27.0,68.0,58.0,57.0,20.0,30.0,27.0,44.0,70.0,2
-11.0,119.0,5.0,-17.0,-18.0,-18.0,-13.0,30.0,-60.0,-38.0,-4.0,-14.0,-33.0,-61.0,-65.0,-52.0,2
-2.0,-48.0,10.0,-17.0,13.0,30.0,37.0,-54.0,-37.0,-29.0,-103.0,-19.0,-24.0,-58.0,-74.0,-96.0,2
-32.0,-31.0,-40.0,-35.0,-33.0,-33.0,-32.0,-28.0,-24.0,-30.0,-37.0,-33.0,-29.0,-26.0,-26.0,-24.0,2
-30.0,-56.0,-40.0,-11.0,-8.0,-9.0,-8.0,-7.0,0.0,2.0,7.0,-10.0,-7.0,-6.0,-7.0,-5.0,2
13.0,-32.0,-29.0,-23.0,-13.0,-8.0,-4.0,-15.0,26.0,26.0,15.0,-19.0,0.0,16.0,29.0,34.0,2
-12.0,10.0,-15.0,0.0,1.0,0.0,-1.0,-4.0,-24.0,-22.0,-9.0,-4.0,0.0,0.0,-1.0,-4.0,2
92.0,240.0,92.0,36.0,46.0,64.0,70.0,403.0,207.0,162.0,158.0,56.0,102.0,187.0,256.0,363.0,2
8.0,-65.0,-20.0,-47.0,-41.0,-31.0,-4.0,17.0,-91.0,-66.0,-109.0,-32.0,-64.0,-108.0,-100.0,-53.0,2
-33.0,-140.0,-3.0,0.0,18.0,36.0,37.0,-64.0,-177.0,-144.0,-161.0,-1.0,-35.0,-91.0,-172.0,-308.0,2
40.0,-6.0,-49.0,-16.0,0.0,2.0,6.0,14.0,8.0,-3.0,-18.0,-16.0,0.0,0.0,4.0,10.0,2
40.0,-570.0,85.0,-34.0,-56.0,-32.0,-8.0,9.0,-268.0,-226.0,-330.0,-32.0,-129.0,-235.0,-288.0,-324.0,2
13.0,-150.0,-1.0,-17.0,19.0,53.0,86.0,-228.0,-35.0,-43.0,-111.0,-24.0,-26.0,-54.0,-65.0,-86.0,2
8.0,-8.0,1.0,13.0,16.0,13.0,-1.0,22.0,50.0,41.0,38.0,13.0,27.0,45.0,46.0,27.0,2
24.0,16.0,45.0,1.0,-5.0,-10.0,-21.0,-24.0,6.0,8.0,19.0,-3.0,-2.0,8.0,8.0,1.0,2
23.0,40.0,21.0,23.0,25.0,23.0,17.0,12.0,26.0,32.0,33.0,26.0,24.0,25.0,21.0,20.0,2
17.0,179.0,1.0,42.0,30.0,23.0,29.0,-7.0,92.0,89.0,112.0,25.0,48.0,64.0,94.0,136.0,2
29.0,-97.0,12.0,14.0,12.0,10.0,11.0,14.0,29.0,29.0,13.0,13.0,7.0,4.0,8.0,10.0,2
7.0,-50.0,3.0,-2.0,-4.0,-4.0,-1.0,-4.0,-2.0,-1.0,-4.0,-3.0,-3.0,-2.0,-4.0,-4.0,2
119.0,-1033.0,-16.0,15.0,20.0,28.0,32.0,-8.0,-14.0,-22.0,-68.0,-1.0,7.0,-7.0,-14.0,-28.0,2
-14.0,156.0,19.0,-9.0,-15.0,-13.0,-13.0,20.0,-10.0,1.0,-5.0,-12.0,-20.0,-28.0,-31.0,-26.0,2
23.0,-94.0,15.0,-4.0,-6.0,-7.0,-5.0,-1.0,-4.0,-7.0,-24.0,-6.0,-7.0,-12.0,-9.0,-7.0,2
6.0,28.0,20.0,-19.0,-18.0,-4.0,-15.0,-32.0,-49.0,-54.0,-185.0,0.0,-13.0,-12.0,-27.0,-59.0,2
-25.0,-27.0,-17.0,-18.0,-12.0,-8.0,-7.0,-3.0,-37.0,-31.0,-73.0,-11.0,-17.0,-26.0,-33.0,-32.0,2
-27.0,-10.0,26.0,-27.0,-26.0,-12.0,-16.0,-9.0,-67.0,-59.0,-163.0,-18.0,-28.0,-35.0,-39.0,-48.0,2
-52.0,14.0,1.0,-3.0,3.0,0.0,-6.0,3.0,-5.0,0.0,19.0,4.0,7.0,15.0,14.0,15.0,2
-14.0,-56.0,-23.0,-18.0,-18.0,-19.0,-15.0,-9.0,-6.0,-9.0,-12.0,-17.0,-16.0,-17.0,-13.0,-9.0,2
-47.0,219.0,-23.0,-8.0,-20.0,-15.0,-4.0,45.0,-184.0,-136.0,-129.0,-12.0,-80.0,-170.0,-215.0,-237.0,2
-8.0,255.0,-26.0,39.0,40.0,30.0,24.0,10.0,93.0,83.0,153.0,28.0,48.0,86.0,95.0,112.0,2
27.0,-346.0,49.0,-52.0,-70.0,-45.0,-19.0,-9.0,-209.0,-169.0,-260.0,-56.0,-115.0,-200.0,-228.0,-233.0,2
-17.0,-35.0,-27.0,-29.0,-28.0,-29.0,-18.0,-8.0,-18.0,-20.0,-22.0,-31.0,-25.0,-21.0,-18.0,-16.0,2
-71.0,112.0,-25.0,2.0,1.0,-1.0,-16.0,13.0,13.0,31.0,93.0,2.0,7.0,14.0,17.0,32.0,2
-21.0,-190.0,-59.0,-23.0,-18.0,-18.0,-23.0,-55.0,-46.0,-55.0,-81.0,-23.0,-17.0,-20.0,-22.0,-23.0,2
-8.0,31.0,6.0,8.0,7.0,7.0,4.0,1.0,12.0,12.0,18.0,9.0,7.0,8.0,8.0,9.0,2
22.0,252.0,-13.0,35.0,38.0,34.0,32.0,37.0,66.0,68.0,128.0,36.0,51.0,63.0,64.0,71.0,2
-23.0,4.0,-8.0,7.0,7.0,6.0,4.0,1.0,17.0,16.0,19.0,6.0,8.0,11.0,11.0,11.0,2
4.0,-110.0,-19.0,-40.0,-47.0,-28.0,-8.0,8.0,-72.0,-61.0,-131.0,-29.0,-51.0,-67.0,-66.0,-65.0,2
12.0,20.0,3.0,22.0,21.0,18.0,17.0,19.0,16.0,18.0,20.0,23.0,19.0,20.0,17.0,21.0,2
30.0,149.0,12.0,43.0,50.0,44.0,37.0,10.0,124.0,108.0,142.0,45.0,76.0,113.0,130.0,138.0,2
-60.0,123.0,-18.0,2.0,17.0,17.0,15.0,4.0,-2.0,2.0,-8.0,7.0,14.0,8.0,8.0,8.0,2
-42.0,-204.0,-29.0,-41.0,-9.0,20.0,49.0,-244.0,-89.0,-85.0,-156.0,-41.0,-50.0,-83.0,-100.0,-129.0,2
-23.0,-25.0,-8.0,-56.0,-42.0,-24.0,-26.0,-65.0,-82.0,-76.0,-176.0,-31.0,-47.0,-63.0,-78.0,-110.0,2
12.0,25.0,3.0,13.0,8.0,6.0,9.0,10.0,8.0,10.0,9.0,8.0,8.0,8.0,7.0,9.0,2
-28.0,155.0,46.0,-92.0,-22.0,1.0,-47.0,-95.0,41.0,-3.0,-56.0,-37.0,10.0,68.0,62.0,7.0,2
-7.0,-88.0,-39.0,-4.0,9.0,12.0,12.0,8.0,-18.0,-23.0,-24.0,-1.0,8.0,9.0,7.0,5.0,2
-93.0,360.0,4.0,-90.0,-95.0,-87.0,-130.0,-236.0,-154.0,-108.0,-192.0,-51.0,-97.0,-112.0,-148.0,-195.0,2
-2.0,-28.0,7.0,-15.0,-15.0,-15.0,-19.0,-18.0,0.0,7.0,-35.0,-12.0,-18.0,-26.0,-27.0,-28.0,2
29.0,180.0,38.0,-29.0,-33.0,-13.0,-19.0,-68.0,-70.0,-72.0,-244.0,-9.0,-18.0,0.0,-14.0,-65.0,2
34.0,220.0,9.0,22.0,5.0,11.0,20.0,21.0,16.0,29.0,46.0,17.0,6.0,9.0,7.0,23.0,2
-15.0,-5.0,-14.0,-16.0,-15.0,-12.0,-15.0,-19.0,-13.0,-15.0,-19.0,-12.0,-11.0,-11.0,-11.0,-15.0,2
14.0,-66.0,-16.0,2.0,8.0,10.0,21.0,23.0,12.0,12.0,12.0,8.0,8.0,10.0,12.0,15.0,2
-60.0,53.0,-50.0,-66.0,-63.0,-41.0,-27.0,-12.0,-148.0,-138.0,-254.0,-44.0,-81.0,-103.0,-127.0,-184.0,2
