0,1,2,3,4,5,6,7,8,9,10,11,12,13,14,15,16
-8.0,-5.0,-9.0,-11.0,-4.0,-8.0,-14.0,-12.0,-8.0,-8.0,-10.0,-8.0,-7.0,-8.0,-14.0,-20.0,2
-14.0,-22.0,-28.0,-66.0,-57.0,-99.0,-223.0,-267.0,-47.0,-44.0,-42.0,-40.0,-43.0,-48.0,-23.0,-28.0,2
-13.0,-3.0,-5.0,30.0,12.0,44.0,93.0,97.0,-167.0,-45.0,-19.0,2.0,36.0,128.0,393.0,293.0,2
2.0,-2.0,-21.0,-10.0,-3.0,-3.0,-4.0,3.0,8.0,-6.0,-5.0,4.0,-2.0,-3.0,-13.0,-4.0,2
-16.0,3.0,6.0,-76.0,-65.0,-150.0,-95.0,-64.0,950.0,225.0,126.0,-7.0,-208.0,-653.0,-1831.0,-1456.0,2
-33.0,-14.0,-9.0,-72.0,-5.0,19.0,49.0,14.0,6.0,-39.0,-19.0,-30.0,-29.0,-18.0,-42.0,-45.0,2
3.0,4.0,11.0,22.0,-5.0,-10.0,-16.0,-11.0,-15.0,4.0,11.0,-2.0,-5.0,-4.0,-14.0,3.0,2
-12.0,3.0,10.0,-21.0,-39.0,-112.0,-83.0,-53.0,683.0,159.0,91.0,1.0,-162.0,-489.0,-1573.0,-988.0,2
-15.0,25.0,5.0,-45.0,27.0,164.0,365.0,409.0,-186.0,13.0,21.0,-4.0,92.0,182.0,433.0,314.0,2
-25.0,-19.0,-19.0,-88.0,-48.0,-37.0,-33.0,-36.0,-17.0,-10.0,-9.0,-25.0,-40.0,-51.0,-108.0,-64.0,2
27.0,-27.0,-38.0,218.0,-20.0,-25.0,-164.0,-210.0,-2.0,-15.0,-20.0,9.0,36.0,7.0,93.0,11.0,2
-68.0,-27.0,-17.0,-76.0,52.0,114.0,193.0,61.0,118.0,-2.0,-16.0,-3.0,4.0,-28.0,-174.0,-158.0,2
10.0,17.0,12.0,-39.0,31.0,15.0,17.0,-1.0,-54.0,41.0,35.0,-47.0,4.0,54.0,149.0,116.0,2
11.0,18.0,19.0,-1.0,9.0,15.0,16.0,18.0,-7.0,-10.0,-14.0,-3.0,10.0,12.0,16.0,9.0,2
-24.0,7.0,27.0,58.0,41.0,128.0,475.0,649.0,-54.0,-16.0,6.0,-25.0,-23.0,25.0,149.0,144.0,2
14.0,8.0,-4.0,-48.0,-14.0,-4.0,8.0,6.0,19.0,4.0,-1.0,-32.0,-5.0,11.0,8.0,-10.0,2
0.0,-3.0,2.0,-71.0,-6.0,-27.0,-69.0,-79.0,-77.0,25.0,7.0,7.0,-6.0,-35.0,-128.0,-130.0,2
31.0,27.0,34.0,-88.0,8.0,-9.0,-14.0,3.0,7.0,20.0,14.0,55.0,1.0,-14.0,-57.0,-34.0,2
17.0,38.0,44.0,-303.0,-58.0,-137.0,-68.0,-46.0,1340.0,349.0,205.0,14.0,-212.0,-848.0,-1891.0,-1873.0,2
-59.0,-35.0,-32.0,-87.0,-35.0,-10.0,17.0,-14.0,-26.0,-30.0,-35.0,-77.0,-59.0,-47.0,-74.0,-67.0,2
-2.0,8.0,6.0,-144.0,-27.0,-49.0,-35.0,-35.0,1141.0,227.0,102.0,-18.0,-62.0,-542.0,-2014.0,-2006.0,2
-14.0,-6.0,-9.0,-18.0,2.0,25.0,67.0,60.0,-70.0,-20.0,-16.0,-6.0,16.0,55.0,166.0,104.0,2
-14.0,-6.0,-18.0,-54.0,-2.0,2.0,8.0,5.0,-44.0,-53.0,-63.0,-9.0,-15.0,11.0,125.0,156.0,2
-26.0,-7.0,1.0,-64.0,-11.0,23.0,77.0,98.0,59.0,-32.0,-2.0,-69.0,7.0,71.0,306.0,75.0,2
-24.0,-15.0,-12.0,5.0,-2.0,-5.0,-14.0,-20.0,-33.0,-25.0,-19.0,-14.0,-10.0,-6.0,-14.0,-42.0,2
-6.0,-7.0,-10.0,-7.0,-10.0,-7.0,-4.0,-6.0,-7.0,-12.0,-11.0,-9.0,-8.0,-4.0,19.0,-5.0,2
-45.0,-45.0,-28.0,162.0,21.0,30.0,-90.0,-136.0,-378.0,-133.0,-86.0,-36.0,22.0,191.0,516.0,708.0,2
-9.0,-7.0,-3.0,7.0,5.0,1.0,1.0,-3.0,-14.0,-15.0,-7.0,31.0,12.0,2.0,6.0,12.0,2
1.0,8.0,8.0,-14.0,14.0,10.0,10.0,-4.0,6.0,4.0,6.0,35.0,-4.0,-29.0,-79.0,-77.0,2
-24.0,-17.0,-19.0,-23.0,-1.0,29.0,75.0,67.0,-108.0,-32.0,-25.0,-9.0,16.0,68.0,229.0,146.0,2
-41.0,-8.0,7.0,-78.0,60.0,80.0,164.0,140.0,-29.0,-41.0,-22.0,39.0,34.0,72.0,141.0,132.0,2
10.0,-8.0,-4.0,17.0,-11.0,-12.0,-13.0,113.0,-32.0,-24.0,-19.0,-11.0,-14.0,-12.0,60.0,62.0,2
1.0,-2.0,4.0,50.0,6.0,4.0,8.0,9.0,14.0,-15.0,2.0,9.0,4.0,5.0,24.0,29.0,2
-8.0,5.0,9.0,-178.0,-78.0,-133.0,-69.0,-49.0,865.0,240.0,128.0,-7.0,-199.0,-641.0,-1838.0,-1521.0,2
-14.0,-11.0,-10.0,-11.0,-7.0,-8.0,-20.0,-25.0,-44.0,-12.0,-10.0,-11.0,-8.0,-4.0,-2.0,-12.0,2
-10.0,-12.0,-8.0,-4.0,-19.0,-18.0,-21.0,-19.0,-29.0,-13.0,-12.0,-20.0,-9.0,-6.0,-14.0,-3.0,2
93.0,28.0,-19.0,-82.0,-104.0,-71.0,-127.0,42.0,-175.0,-7.0,-4.0,-20.0,-7.0,42.0,315.0,219.0,2
6.0,19.0,50.0,43.0,38.0,15.0,-13.0,-27.0,34.0,29.0,49.0,89.0,38.0,0.0,-60.0,-73.0,2
-45.0,-64.0,-66.0,139.0,25.0,114.0,228.0,335.0,-245.0,-42.0,-18.0,-14.0,55.0,145.0,465.0,396.0,2
-10.0,-1.0,-2.0,-11.0,4.0,42.0,99.0,96.0,-2.0,4.0,5.0,-32.0,6.0,21.0,28.0,27.0,2
4.0,-15.0,-7.0,-7.0,-23.0,-35.0,-47.0,-41.0,104.0,11.0,2.0,10.0,-27.0,-76.0,-250.0,-147.0,2
-16.0,-28.0,3.0,-39.0,-1.0,-19.0,-31.0,-20.0,-39.0,9.0,30.0,20.0,4.0,-21.0,-122.0,-63.0,2
-22.0,-18.0,-8.0,39.0,-16.0,-13.0,-8.0,-12.0,0.0,-6.0,-6.0,11.0,-10.0,-9.0,1.0,0.0,2
6.0,21.0,5.0,-27.0,-14.0,70.0,220.0,355.0,0.0,32.0,42.0,104.0,16.0,32.0,96.0,54.0,2
7.0,4.0,8.0,42.0,29.0,20.0,11.0,14.0,18.0,12.0,20.0,51.0,31.0,20.0,19.0,17.0,2
3.0,-4.0,17.0,11.0,-14.0,-21.0,-27.0,-26.0,8.0,15.0,8.0,2.0,-16.0,-31.0,-54.0,-47.0,2
10.0,21.0,32.0,4.0,-16.0,-9.0,0.0,8.0,-14.0,-10.0,-6.0,-16.0,-25.0,-3.0,-18.0,-6.0,2
-7.0,-3.0,-7.0,8.0,-1.0,8.0,2.0,-12.0,-17.0,-10.0,-9.0,-10.0,-2.0,5.0,19.0,-3.0,2
14.0,12.0,8.0,11.0,5.0,8.0,13.0,8.0,15.0,8.0,7.0,8.0,7.0,7.0,36.0,-10.0,2
106.0,29.0,33.0,114.0,-43.0,-238.0,-733.0,-768.0,52.0,15.0,6.0,16.0,-12.0,-65.0,-132.0,-54.0,2
-17.0,-14.0,-10.0,4.0,3.0,0.0,-5.0,-8.0,-16.0,-14.0,-11.0,9.0,8.0,4.0,5.0,-22.0,2
1.0,15.0,25.0,-238.0,-60.0,-117.0,-77.0,-48.0,625.0,152.0,83.0,-5.0,-163.0,-481.0,-1509.0,-1063.0,2
5.0,-4.0,26.0,123.0,32.0,35.0,53.0,108.0,29.0,7.0,11.0,12.0,28.0,51.0,23.0,53.0,2
30.0,24.0,20.0,-88.0,-31.0,-78.0,-214.0,-293.0,113.0,-21.0,-16.0,-30.0,-37.0,-34.0,-35.0,-13.0,2
24.0,16.0,17.0,14.0,8.0,13.0,23.0,26.0,-12.0,20.0,23.0,8.0,8.0,12.0,22.0,20.0,2
11.0,20.0,23.0,45.0,40.0,39.0,44.0,44.0,19.0,25.0,30.0,37.0,40.0,44.0,46.0,35.0,2
-11.0,-10.0,-13.0,5.0,-5.0,-5.0,1.0,-1.0,-6.0,-5.0,-12.0,-20.0,-10.0,-11.0,1.0,-7.0,2
-28.0,-40.0,-43.0,-25.0,-34.0,-32.0,-32.0,-32.0,3.0,14.0,-3.0,-28.0,-53.0,-38.0,-32.0,-26.0,2
11.0,12.0,16.0,11.0,8.0,8.0,-3.0,5.0,10.0,14.0,16.0,7.0,14.0,8.0,6.0,4.0,2
39.0,58.0,36.0,37.0,54.0,16.0,40.0,49.0,377.0,93.0,68.0,23.0,7.0,-154.0,-514.0,-537.0,2
-4.0,1.0,5.0,0.0,-2.0,-11.0,-6.0,-1.0,-1.0,0.0,10.0,20.0,-2.0,-11.0,-10.0,-3.0,2
-1.0,3.0,-7.0,-36.0,-11.0,-11.0,-18.0,-22.0,-6.0,-17.0,-8.0,-10.0,-12.0,-10.0,-3.0,-61.0,2
-26.0,-31.0,-30.0,-39.0,-48.0,-39.0,-44.0,-35.0,-32.0,-7.0,-4.0,-20.0,-65.0,-61.0,-120.0,-75.0,2
-16.0,-6.0,8.0,-39.0,23.0,27.0,27.0,-4.0,24.0,23.0,23.0,17.0,9.0,-1.0,-59.0,-47.0,2
65.0,-1.0,-2.0,250.0,-41.0,-125.0,-222.0,-58.0,5.0,-13.0,-7.0,-4.0,-19.0,-27.0,-76.0,-202.0,2
-7.0,-6.0,-15.0,-12.0,-22.0,-8.0,-1.0,2.0,-14.0,-14.0,-12.0,-25.0,-23.0,-4.0,15.0,-5.0,2
0.0,5.0,8.0,15.0,9.0,14.0,9.0,8.0,-2.0,7.0,-2.0,4.0,12.0,13.0,25.0,89.0,2
-1.0,-1.0,0.0,0.0,5.0,14.0,12.0,13.0,-5.0,-2.0,-9.0,-19.0,3.0,7.0,27.0,91.0,2
13.0,20.0,22.0,27.0,8.0,3.0,7.0,11.0,18.0,15.0,32.0,12.0,8.0,8.0,16.0,15.0,2
-7.0,1.0,-3.0,3.0,4.0,7.0,12.0,8.0,-6.0,-2.0,-1.0,1.0,1.0,3.0,29.0,-1.0,2
15.0,17.0,16.0,18.0,14.0,8.0,3.0,3.0,14.0,16.0,17.0,30.0,18.0,11.0,13.0,0.0,2
91.0,86.0,81.0,-120.0,14.0,-32.0,-74.0,-53.0,124.0,72.0,50.0,42.0,0.0,-69.0,-351.0,-284.0,2
-16.0,-11.0,-8.0,8.0,0.0,10.0,13.0,13.0,-4.0,0.0,-1.0,-2.0,3.0,7.0,33.0,22.0,2
-23.0,24.0,-11.0,-65.0,-35.0,77.0,211.0,325.0,-113.0,-16.0,-17.0,-12.0,8.0,47.0,176.0,106.0,2
29.0,34.0,45.0,-110.0,8.0,-29.0,-56.0,-37.0,-1.0,19.0,17.0,27.0,10.0,-31.0,-105.0,-64.0,2
-2.0,19.0,45.0,10.0,88.0,65.0,64.0,51.0,-61.0,-44.0,-4.0,60.0,93.0,210.0,556.0,485.0,2
-15.0,-35.0,-31.0,238.0,55.0,-19.0,-112.0,-186.0,288.0,31.0,7.0,8.0,2.0,-107.0,-341.0,-369.0,2
-66.0,-72.0,-89.0,-134.0,-9.0,-17.0,0.0,-40.0,-130.0,18.0,1.0,27.0,-22.0,32.0,192.0,231.0,2
-15.0,-3.0,-6.0,30.0,11.0,45.0,93.0,96.0,-168.0,-45.0,-19.0,2.0,35.0,127.0,392.0,293.0,2
65.0,8.0,6.0,61.0,-50.0,-100.0,-227.0,-64.0,94.0,48.0,30.0,-13.0,-44.0,-100.0,-98.0,-20.0,2
9.0,-2.0,16.0,104.0,44.0,41.0,92.0,130.0,412.0,126.0,71.0,21.0,8.0,-151.0,-728.0,-540.0,2
-7.0,-7.0,-9.0,-19.0,-12.0,-3.0,5.0,-9.0,-28.0,-13.0,-8.0,-7.0,-1.0,16.0,70.0,39.0,2
12.0,14.0,8.0,12.0,-4.0,-7.0,-1.0,5.0,21.0,16.0,4.0,0.0,-4.0,-10.0,-1.0,-4.0,2
14.0,12.0,10.0,7.0,5.0,0.0,-7.0,-8.0,13.0,10.0,12.0,12.0,9.0,7.0,6.0,8.0,2
-63.0,-63.0,-64.0,266.0,126.0,144.0,112.0,-75.0,59.0,-56.0,-43.0,50.0,85.0,140.0,262.0,224.0,2
38.0,46.0,41.0,-257.0,-43.0,-80.0,-113.0,-97.0,-4.0,46.0,21.0,-5.0,-39.0,-77.0,-216.0,-172.0,2
40.0,55.0,70.0,-195.0,-27.0,-111.0,-216.0,-249.0,31.0,48.0,32.0,20.0,-48.0,-110.0,-299.0,-229.0,2
-80.0,-37.0,-6.0,208.0,124.0,236.0,289.0,131.0,0.0,-23.0,-9.0,39.0,86.0,144.0,249.0,273.0,2
-32.0,-30.0,-2.0,28.0,1.0,-25.0,-31.0,-16.0,180.0,-1.0,-5.0,-6.0,-42.0,-104.0,-339.0,-126.0,2
23.0,4.0,14.0,3.0,4.0,-6.0,-10.0,-5.0,58.0,25.0,22.0,18.0,1.0,-19.0,-108.0,-59.0,2
-3.0,-17.0,-44.0,-81.0,-5.0,-24.0,-18.0,-27.0,-76.0,-45.0,-32.0,-17.0,-6.0,32.0,137.0,120.0,2
-1.0,4.0,11.0,-55.0,-7.0,-17.0,-27.0,-32.0,52.0,45.0,28.0,38.0,-20.0,-60.0,-234.0,-182.0,2
-153.0,-68.0,-48.0,-74.0,62.0,225.0,532.0,464.0,62.0,-44.0,-29.0,-20.0,1.0,16.0,-58.0,-78.0,2
8.0,8.0,5.0,0.0,-1.0,-3.0,-2.0,-3.0,9.0,3.0,5.0,1.0,0.0,5.0,8.0,6.0,2
31.0,27.0,18.0,-38.0,-11.0,-32.0,-58.0,-40.0,-8.0,-8.0,-1.0,2.0,0.0,0.0,35.0,18.0,2
21.0,-5.0,1.0,57.0,-15.0,-1.0,25.0,197.0,-99.0,-1.0,8.0,15.0,-3.0,18.0,257.0,290.0,2
0.0,-11.0,-9.0,-5.0,-22.0,-48.0,-104.0,-115.0,-17.0,-16.0,-11.0,-8.0,-13.0,-16.0,-10.0,-11.0,2
33.0,-13.0,-14.0,132.0,-18.0,-11.0,-37.0,128.0,-483.0,-124.0,-75.0,-20.0,22.0,210.0,824.0,844.0,2
-4.0,-15.0,-31.0,-6.0,-28.0,-9.0,-1.0,2.0,-8.0,-4.0,-2.0,-82.0,-35.0,-12.0,7.0,20.0,2
-1.0,-24.0,-2.0,118.0,12.0,-7.0,-35.0,27.0,-16.0,-17.0,-12.0,0.0,10.0,42.0,82.0,174.0,2
2.0,1.0,-3.0,-7.0,-18.0,-27.0,-40.0,-32.0,0.0,-3.0,-6.0,-7.0,-11.0,-16.0,-10.0,-10.0,2
-51.0,-62.0,-61.0,190.0,-12.0,-14.0,-21.0,-36.0,20.0,-49.0,-49.0,-65.0,-22.0,-9.0,31.0,55.0,2
-20.0,-22.0,-6.0,145.0,36.0,44.0,-68.0,-196.0,197.0,29.0,14.0,13.0,37.0,9.0,-243.0,-243.0,2
60.0,17.0,23.0,59.0,-12.0,-64.0,-182.0,-55.0,27.0,-8.0,-1.0,2.0,-13.0,-31.0,-8.0,12.0,2
-24.0,-32.0,-23.0,104.0,19.0,94.0,146.0,253.0,-508.0,-124.0,-79.0,-19.0,54.0,263.0,905.0,819.0,2
-86.0,-109.0,-113.0,240.0,12.0,74.0,26.0,12.0,-901.0,-344.0,-227.0,-25.0,62.0,460.0,1623.0,1378.0,2
-4.0,3.0,1.0,-8.0,12.0,32.0,72.0,59.0,-43.0,-4.0,0.0,10.0,26.0,53.0,144.0,91.0,2
14.0,31.0,24.0,-62.0,11.0,27.0,41.0,6.0,112.0,51.0,39.0,-64.0,-10.0,-37.0,-168.0,-125.0,2
-18.0,-17.0,-5.0,-29.0,-20.0,-28.0,-22.0,-5.0,-24.0,-18.0,-26.0,-10.0,-11.0,-21.0,-7.0,3.0,2
104.0,38.0,39.0,92.0,-32.0,-157.0,-430.0,-335.0,48.0,14.0,13.0,11.0,-22.0,-61.0,-81.0,-35.0,2
51.0,66.0,69.0,-272.0,-35.0,-94.0,-138.0,-122.0,6.0,57.0,35.0,16.0,-34.0,-83.0,-237.0,-175.0,2
25.0,-7.0,6.0,132.0,0.0,-82.0,-299.0,-318.0,38.0,14.0,10.0,7.0,-12.0,-34.0,-132.0,-32.0,2
-129.0,-142.0,-138.0,216.0,-38.0,57.0,157.0,112.0,-210.0,-99.0,-76.0,-129.0,-65.0,59.0,307.0,273.0,2
-110.0,-97.0,-69.0,581.0,120.0,286.0,521.0,524.0,-112.0,37.0,56.0,49.0,98.0,213.0,579.0,476.0,2
-14.0,-6.0,-7.0,-7.0,13.0,45.0,80.0,64.0,-111.0,-27.0,-18.0,5.0,33.0,89.0,271.0,186.0,2
12.0,4.0,6.0,-10.0,-3.0,-2.0,-6.0,-3.0,19.0,6.0,8.0,15.0,-1.0,-10.0,-45.0,-31.0,2
38.0,31.0,32.0,28.0,34.0,34.0,38.0,44.0,36.0,29.0,29.0,46.0,35.0,29.0,0.0,3.0,2
29.0,-3.0,-4.0,-24.0,-75.0,-192.0,-406.0,-432.0,226.0,-2.0,-9.0,-32.0,-85.0,-185.0,-488.0,-376.0,2
-20.0,8.0,-45.0,-61.0,-34.0,110.0,232.0,324.0,-136.0,-18.0,-40.0,-149.0,6.0,49.0,204.0,114.0,2
66.0,53.0,38.0,-240.0,-52.0,-103.0,-158.0,-143.0,137.0,55.0,21.0,14.0,-59.0,-166.0,-502.0,-396.0,2
0.0,3.0,5.0,33.0,-4.0,-3.0,-15.0,-16.0,35.0,-9.0,3.0,-66.0,-2.0,-2.0,-16.0,1.0,2
221.0,73.0,46.0,86.0,-169.0,-431.0,-1130.0,-1147.0,354.0,112.0,64.0,-11.0,-101.0,-297.0,-609.0,-422.0,2
-16.0,-16.0,-32.0,-9.0,0.0,-18.0,-45.0,-49.0,27.0,13.0,6.0,38.0,-2.0,-30.0,-71.0,-56.0,2
-42.0,-5.0,9.0,126.0,56.0,126.0,268.0,280.0,-167.0,-4.0,11.0,64.0,70.0,118.0,308.0,216.0,2
7.0,0.0,0.0,-16.0,2.0,2.0,3.0,5.0,17.0,7.0,4.0,13.0,8.0,5.0,-19.0,-9.0,2
-21.0,-30.0,-25.0,6.0,-3.0,-4.0,-4.0,-3.0,-47.0,-49.0,-11.0,3.0,4.0,6.0,5.0,-5.0,2
3.0,3.0,3.0,-4.0,-9.0,1.0,5.0,6.0,-8.0,-6.0,-4.0,-16.0,-25.0,-9.0,0.0,0.0,2
32.0,21.0,41.0,-77.0,-12.0,-32.0,-45.0,-21.0,7.0,21.0,18.0,-1.0,-10.0,-43.0,-193.0,-134.0,2
60.0,70.0,73.0,-150.0,-12.0,-55.0,-39.0,-39.0,595.0,203.0,129.0,47.0,-103.0,-398.0,-1307.0,-878.0,2
-24.0,9.0,21.0,-437.0,-43.0,-71.0,-59.0,-60.0,333.0,97.0,48.0,-23.0,-95.0,-279.0,-834.0,-767.0,2
6.0,-22.0,-16.0,184.0,-12.0,14.0,41.0,200.0,131.0,43.0,26.0,-1.0,-26.0,-85.0,-130.0,-69.0,2
-7.0,9.0,7.0,-90.0,-16.0,-39.0,-44.0,-43.0,48.0,-7.0,-30.0,5.0,-19.0,-31.0,-57.0,-4.0,2
21.0,23.0,18.0,-14.0,8.0,3.0,-60.0,-118.0,5.0,11.0,10.0,8.0,10.0,16.0,28.0,25.0,2
6.0,-2.0,-8.0,-15.0,-14.0,-13.0,-2.0,6.0,-26.0,-10.0,-20.0,9.0,-8.0,-10.0,-4.0,-15.0,2
1.0,-44.0,-66.0,1.0,-54.0,-77.0,-136.0,-116.0,-65.0,-52.0,-90.0,-34.0,-26.0,4.0,82.0,62.0,2
2.0,11.0,14.0,-1.0,13.0,19.0,42.0,55.0,14.0,15.0,19.0,22.0,11.0,13.0,7.0,7.0,2
18.0,27.0,28.0,20.0,38.0,59.0,105.0,108.0,29.0,35.0,31.0,33.0,37.0,40.0,37.0,35.0,2
2.0,0.0,-3.0,2.0,-8.0,-14.0,-19.0,-15.0,0.0,-1.0,2.0,-2.0,-9.0,-12.0,4.0,-20.0,2
4.0,-6.0,11.0,-34.0,-6.0,1.0,0.0,14.0,5.0,13.0,2.0,-15.0,-10.0,-2.0,-39.0,3.0,2
-21.0,-10.0,-14.0,-19.0,-19.0,-23.0,-31.0,-20.0,-11.0,-13.0,-21.0,0.0,-12.0,-20.0,-2.0,-14.0,2
-47.0,-89.0,-148.0,-74.0,-56.0,-5.0,-6.0,-32.0,-185.0,-38.0,-86.0,-10.0,-4.0,34.0,232.0,140.0,2
-2.0,-7.0,-5.0,-13.0,-8.0,-10.0,-15.0,-15.0,7.0,-5.0,-8.0,-8.0,-9.0,-11.0,-30.0,-27.0,2
15.0,-14.0,-17.0,63.0,-33.0,-65.0,-142.0,-132.0,-80.0,-8.0,-7.0,-1.0,-3.0,23.0,119.0,107.0,2
-28.0,-31.0,-18.0,90.0,26.0,51.0,0.0,12.0,-415.0,-151.0,-92.0,-13.0,56.0,253.0,704.0,745.0,2
-18.0,-30.0,-2.0,140.0,25.0,8.0,-20.0,-14.0,102.0,-8.0,-5.0,5.0,-11.0,-26.0,-156.0,40.0,2
3.0,-1.0,16.0,41.0,31.0,21.0,15.0,12.0,-1.0,1.0,-7.0,41.0,31.0,22.0,39.0,31.0,2
-23.0,-18.0,-11.0,27.0,23.0,31.0,-5.0,2.0,-402.0,-152.0,-93.0,-15.0,40.0,212.0,610.0,719.0,2
-24.0,1.0,39.0,171.0,92.0,36.0,50.0,43.0,58.0,-24.0,-3.0,29.0,31.0,14.0,-45.0,-24.0,2
27.0,13.0,23.0,202.0,86.0,88.0,64.0,27.0,-71.0,6.0,47.0,108.0,108.0,100.0,185.0,142.0,2
5.0,-16.0,-16.0,-25.0,-19.0,-12.0,-10.0,-7.0,34.0,1.0,-12.0,5.0,-22.0,-15.0,-71.0,-31.0,2
1.0,6.0,4.0,-26.0,-8.0,-8.0,-12.0,-25.0,3.0,21.0,9.0,11.0,-15.0,-28.0,-56.0,-47.0,2
-32.0,-25.0,-28.0,-6.0,-49.0,-64.0,-48.0,-29.0,212.0,13.0,-24.0,-11.0,-64.0,-172.0,-471.0,-385.0,2
-16.0,-27.0,-5.0,125.0,53.0,90.0,-52.0,-136.0,-142.0,-44.0,-22.0,4.0,56.0,152.0,285.0,294.0,2
22.0,41.0,54.0,72.0,37.0,26.0,12.0,7.0,83.0,1.0,39.0,38.0,32.0,30.0,47.0,43.0,2
6.0,19.0,21.0,-21.0,13.0,6.0,8.0,-8.0,22.0,31.0,10.0,-35.0,7.0,-32.0,-157.0,-119.0,2
-14.0,-10.0,11.0,246.0,100.0,182.0,244.0,212.0,148.0,-50.0,-9.0,77.0,91.0,148.0,296.0,256.0,2
-3.0,0.0,10.0,37.0,20.0,11.0,4.0,-2.0,-3.0,0.0,11.0,41.0,12.0,12.0,17.0,9.0,2
12.0,25.0,30.0,-221.0,-25.0,-45.0,-43.0,-36.0,92.0,15.0,2.0,0.0,-74.0,-164.0,-446.0,-73.0,2
-2.0,15.0,22.0,-313.0,-78.0,-145.0,-73.0,-51.0,1072.0,263.0,145.0,-13.0,-229.0,-766.0,-1864.0,-1843.0,2
-148.0,-106.0,-57.0,333.0,146.0,254.0,343.0,140.0,-49.0,-140.0,-73.0,-51.0,66.0,200.0,421.0,322.0,2
13.0,6.0,8.0,13.0,3.0,9.0,9.0,12.0,73.0,-10.0,4.0,19.0,14.0,10.0,15.0,23.0,2
-2.0,-6.0,-6.0,4.0,-1.0,-10.0,-26.0,-19.0,3.0,1.0,-4.0,7.0,3.0,1.0,0.0,-11.0,2
-37.0,-17.0,-12.0,-87.0,2.0,31.0,17.0,-111.0,96.0,8.0,-4.0,-25.0,-14.0,-44.0,-163.0,-115.0,2
-9.0,11.0,25.0,-13.0,18.0,17.0,29.0,7.0,18.0,2.0,-4.0,0.0,2.0,-16.0,-67.0,-56.0,2
1.0,51.0,39.0,-20.0,53.0,177.0,374.0,417.0,-188.0,12.0,28.0,35.0,113.0,196.0,446.0,331.0,2
-4.0,9.0,4.0,-104.0,-41.0,-73.0,-124.0,-139.0,68.0,62.0,28.0,-15.0,-55.0,-163.0,-643.0,-711.0,2
-4.0,-14.0,-9.0,-43.0,-18.0,-24.0,-41.0,-32.0,-10.0,-8.0,-18.0,-7.0,-18.0,-22.0,-37.0,-18.0,2
-5.0,30.0,19.0,-305.0,-17.0,8.0,34.0,11.0,-97.0,27.0,17.0,-15.0,-41.0,-96.0,-288.0,-370.0,2
7.0,0.0,-3.0,-8.0,-15.0,-3.0,9.0,10.0,9.0,1.0,-3.0,-33.0,-19.0,-8.0,5.0,18.0,2
-32.0,-54.0,-59.0,-54.0,-17.0,-16.0,-28.0,-20.0,-15.0,-12.0,-25.0,-34.0,0.0,-16.0,-37.0,-31.0,2
-51.0,-59.0,-36.0,210.0,13.0,-21.0,-7.0,-5.0,38.0,-58.0,-48.0,-20.0,-22.0,-14.0,-10.0,13.0,2
-19.0,-4.0,-21.0,-77.0,-4.0,-15.0,-14.0,-31.0,32.0,18.0,7.0,2.0,-23.0,-72.0,-213.0,-171.0,2
45.0,42.0,56.0,-84.0,-6.0,-54.0,-80.0,-47.0,68.0,44.0,38.0,23.0,-26.0,-86.0,-328.0,-272.0,2
-33.0,-44.0,-37.0,-26.0,-34.0,-29.0,-24.0,-14.0,-26.0,-31.0,-36.0,-35.0,-33.0,-31.0,-19.0,-14.0,2
-108.0,-41.0,-10.0,22.0,85.0,206.0,427.0,380.0,58.0,-42.0,-18.0,14.0,33.0,68.0,119.0,197.0,2
20.0,19.0,8.0,-12.0,-2.0,3.0,6.0,7.0,17.0,12.0,16.0,8.0,3.0,17.0,12.0,-12.0,2
16.0,15.0,22.0,8.0,22.0,35.0,30.0,23.0,8.0,14.0,17.0,-16.0,15.0,29.0,46.0,21.0,2
-5.0,3.0,0.0,-8.0,-6.0,-3.0,17.0,34.0,5.0,-5.0,-3.0,-6.0,-5.0,-7.0,-7.0,6.0,2
-53.0,-33.0,-55.0,-24.0,46.0,158.0,304.0,332.0,-154.0,-16.0,-101.0,38.0,13.0,103.0,337.0,260.0,2
43.0,29.0,-22.0,0.0,-7.0,-7.0,-92.0,-140.0,-107.0,-18.0,0.0,12.0,37.0,81.0,265.0,121.0,2
-43.0,3.0,33.0,-8.0,53.0,50.0,78.0,38.0,99.0,-30.0,-35.0,52.0,16.0,-19.0,-92.0,-69.0,2
-29.0,-16.0,-21.0,-11.0,1.0,41.0,81.0,76.0,-181.0,-61.0,-39.0,-16.0,20.0,101.0,356.0,257.0,2
24.0,28.0,20.0,-27.0,17.0,24.0,21.0,15.0,12.0,0.0,10.0,9.0,11.0,32.0,56.0,-36.0,2
-4.0,-3.0,-5.0,-6.0,-5.0,-8.0,-10.0,-11.0,-5.0,-4.0,-8.0,-5.0,-5.0,-7.0,-10.0,-12.0,2
13.0,21.0,17.0,11.0,13.0,16.0,13.0,29.0,28.0,24.0,25.0,24.0,17.0,21.0,34.0,36.0,2
-12.0,-13.0,-19.0,-7.0,1.0,8.0,16.0,21.0,-8.0,-23.0,-21.0,-7.0,2.0,10.0,33.0,27.0,2
32.0,39.0,37.0,40.0,19.0,18.0,19.0,25.0,78.0,-15.0,2.0,17.0,15.0,11.0,36.0,39.0,2
12.0,36.0,-30.0,-96.0,-74.0,127.0,318.0,400.0,-132.0,34.0,-5.0,-76.0,-51.0,64.0,282.0,186.0,2
-63.0,-51.0,-145.0,-126.0,-48.0,115.0,258.0,257.0,-153.0,33.0,20.0,-15.0,-10.0,92.0,328.0,199.0,2
-2.0,-1.0,-8.0,-152.0,-40.0,-57.0,-59.0,-31.0,-18.0,-22.0,-35.0,-24.0,-35.0,-56.0,-114.0,-78.0,2
6.0,-18.0,-29.0,-32.0,-56.0,-92.0,-227.0,-265.0,-36.0,-45.0,-33.0,-81.0,-52.0,-37.0,-33.0,-39.0,2
-56.0,-53.0,-105.0,-105.0,-92.0,22.0,172.0,297.0,-20.0,32.0,-21.0,31.0,-21.0,-27.0,43.0,1.0,2
-11.0,8.0,22.0,-76.0,2.0,-15.0,-14.0,-28.0,-86.0,-35.0,-32.0,-22.0,-1.0,31.0,109.0,81.0,2
21.0,20.0,21.0,10.0,12.0,15.0,-2.0,-27.0,20.0,26.0,20.0,0.0,7.0,16.0,20.0,23.0,2
-142.0,-87.0,-63.0,15.0,45.0,171.0,482.0,505.0,-45.0,-32.0,-27.0,11.0,6.0,32.0,72.0,96.0,2
21.0,-8.0,-4.0,62.0,-4.0,-39.0,-110.0,-96.0,-47.0,-10.0,-2.0,-24.0,11.0,27.0,91.0,68.0,2
-18.0,-5.0,-7.0,20.0,17.0,59.0,106.0,98.0,-171.0,-50.0,-23.0,1.0,37.0,124.0,393.0,285.0,2
27.0,46.0,41.0,-210.0,-57.0,-160.0,-104.0,-75.0,1553.0,389.0,230.0,18.0,-232.0,-933.0,-1899.0,-1889.0,2
-10.0,-13.0,-11.0,-4.0,-11.0,-7.0,-14.0,-18.0,-12.0,-9.0,-6.0,1.0,-4.0,-11.0,-30.0,-30.0,2
0.0,19.0,24.0,-37.0,-10.0,-5.0,-2.0,-16.0,24.0,14.0,16.0,-4.0,-19.0,-36.0,-93.0,-90.0,2
3.0,18.0,5.0,-198.0,-57.0,-109.0,-193.0,-260.0,384.0,78.0,45.0,-23.0,-97.0,-291.0,-840.0,-721.0,2
-10.0,-1.0,0.0,-117.0,-65.0,-139.0,-63.0,-48.0,1407.0,373.0,202.0,-1.0,-204.0,-875.0,-1940.0,-1930.0,2
17.0,18.0,14.0,10.0,15.0,19.0,39.0,46.0,18.0,17.0,19.0,17.0,17.0,21.0,12.0,14.0,2
-2.0,8.0,4.0,23.0,23.0,62.0,107.0,103.0,-155.0,-36.0,-11.0,2.0,45.0,136.0,403.0,293.0,2
-10.0,-19.0,8.0,129.0,37.0,18.0,-4.0,2.0,134.0,4.0,4.0,14.0,-3.0,-33.0,-185.0,17.0,2
-97.0,-79.0,-45.0,562.0,141.0,293.0,494.0,483.0,-134.0,-1.0,30.0,80.0,117.0,215.0,567.0,454.0,2
17.0,31.0,34.0,-87.0,17.0,5.0,-27.0,-10.0,-214.0,-65.0,-35.0,10.0,4.0,76.0,211.0,451.0,2
-23.0,-27.0,-31.0,-8.0,-41.0,-37.0,-34.0,-31.0,-19.0,-9.0,-15.0,-11.0,-31.0,-36.0,-41.0,-44.0,2
8.0,-1.0,1.0,-32.0,-11.0,3.0,11.0,17.0,10.0,10.0,8.0,-3.0,-10.0,3.0,9.0,18.0,2
-28.0,-37.0,-33.0,-14.0,-23.0,-29.0,-26.0,-20.0,-23.0,-22.0,-31.0,-28.0,-14.0,-24.0,0.0,-43.0,2
-121.0,-90.0,-48.0,287.0,71.0,114.0,114.0,-71.0,-41.0,-164.0,-100.0,-91.0,3.0,98.0,234.0,169.0,2
13.0,24.0,29.0,-44.0,32.0,42.0,-3.0,-123.0,107.0,43.0,35.0,26.0,19.0,-13.0,-120.0,-76.0,2
27.0,23.0,23.0,-76.0,4.0,12.0,26.0,40.0,-58.0,11.0,11.0,7.0,7.0,8.0,-6.0,-15.0,2
31.0,25.0,23.0,10.0,12.0,6.0,-11.0,-11.0,53.0,33.0,18.0,2.0,4.0,-12.0,-79.0,-74.0,2
8.0,1.0,-3.0,45.0,3.0,-2.0,5.0,4.0,-9.0,8.0,1.0,-14.0,0.0,2.0,17.0,36.0,2
40.0,42.0,38.0,37.0,38.0,40.0,35.0,33.0,31.0,41.0,47.0,53.0,40.0,42.0,51.0,27.0,2
-15.0,-21.0,3.0,6.0,-10.0,-31.0,-51.0,-30.0,-15.0,9.0,16.0,9.0,-11.0,-23.0,-23.0,-14.0,2
-1.0,-3.0,-1.0,-46.0,-13.0,-32.0,-62.0,-64.0,71.0,29.0,10.0,-13.0,-24.0,-85.0,-272.0,-249.0,2
-20.0,-13.0,-6.0,-34.0,-28.0,-9.0,14.0,8.0,29.0,-5.0,-30.0,-13.0,-35.0,-55.0,-144.0,-114.0,2
-19.0,-16.0,-18.0,-50.0,-17.0,-12.0,-26.0,-31.0,-10.0,-17.0,-11.0,-2.0,-21.0,-15.0,-24.0,-43.0,2
-24.0,-31.0,-13.0,123.0,44.0,84.0,15.0,18.0,-337.0,-104.0,-58.0,-2.0,64.0,231.0,622.0,640.0,2
-88.0,-59.0,-28.0,62.0,13.0,45.0,125.0,94.0,-34.0,-67.0,-40.0,-88.0,-20.0,35.0,109.0,120.0,2
-4.0,-14.0,-28.0,-7.0,-18.0,-13.0,-16.0,-8.0,-11.0,1.0,-3.0,-36.0,-11.0,-7.0,12.0,5.0,2
10.0,7.0,4.0,0.0,-9.0,-20.0,-45.0,-44.0,1.0,3.0,2.0,2.0,-2.0,-5.0,-8.0,-2.0,2
15.0,22.0,25.0,36.0,44.0,50.0,23.0,29.0,-353.0,-112.0,-57.0,16.0,59.0,228.0,600.0,726.0,2
8.0,4.0,9.0,-19.0,-10.0,-18.0,-25.0,-18.0,-3.0,-14.0,-10.0,-20.0,-21.0,-21.0,-34.0,-26.0,2
43.0,39.0,41.0,76.0,31.0,29.0,14.0,8.0,-7.0,35.0,35.0,40.0,38.0,42.0,33.0,9.0,2
-20.0,-28.0,-30.0,17.0,-24.0,-33.0,-33.0,-29.0,-15.0,-3.0,-4.0,-12.0,-27.0,-35.0,-47.0,-50.0,2
166.0,83.0,17.0,-44.0,-164.0,-254.0,-515.0,-371.0,-130.0,-2.0,-2.0,57.0,-26.0,-23.0,200.0,156.0,2
-5.0,12.0,14.0,-90.0,11.0,12.0,17.0,13.0,-51.0,2.0,7.0,10.0,8.0,13.0,23.0,-6.0,2
8.0,15.0,10.0,3.0,3.0,2.0,-8.0,-8.0,-2.0,-14.0,-10.0,-1.0,5.0,2.0,14.0,-2.0,2
66.0,-6.0,-9.0,161.0,-38.0,-103.0,-238.0,-69.0,-408.0,-110.0,-65.0,-23.0,5.0,149.0,651.0,721.0,2
-18.0,-19.0,-29.0,-390.0,-131.0,-189.0,-262.0,-243.0,132.0,-1.0,-40.0,-74.0,-127.0,-258.0,-718.0,-601.0,2
39.0,-7.0,-4.0,222.0,-17.0,-32.0,-57.0,98.0,228.0,66.0,40.0,4.0,-27.0,-115.0,-297.0,-245.0,2
34.0,3.0,-23.0,120.0,-18.0,-20.0,-148.0,-200.0,-111.0,-28.0,-29.0,-29.0,25.0,76.0,379.0,320.0,2
-6.0,33.0,41.0,21.0,89.0,69.0,106.0,66.0,-29.0,31.0,62.0,55.0,48.0,60.0,38.0,29.0,2
26.0,17.0,18.0,66.0,-2.0,-35.0,-27.0,6.0,341.0,84.0,55.0,37.0,-20.0,-171.0,-528.0,-495.0,2
-34.0,9.0,-22.0,-23.0,60.0,59.0,148.0,124.0,-390.0,-112.0,-70.0,22.0,104.0,275.0,715.0,525.0,2
-231.0,-124.0,-60.0,-72.0,104.0,336.0,836.0,873.0,-181.0,-167.0,-144.0,-33.0,29.0,170.0,441.0,371.0,2
-62.0,-40.0,1.0,-100.0,43.0,82.0,174.0,146.0,-24.0,-34.0,-7.0,-82.0,12.0,68.0,124.0,113.0,2
-19.0,-9.0,-9.0,-48.0,-13.0,-2.0,5.0,-12.0,-5.0,-18.0,-17.0,4.0,-27.0,-37.0,-85.0,-85.0,2
3.0,10.0,21.0,10.0,17.0,4.0,-14.0,-17.0,-9.0,5.0,53.0,38.0,25.0,25.0,36.0,33.0,2
-16.0,-18.0,-28.0,-37.0,-34.0,-25.0,-2.0,15.0,-9.0,-9.0,-12.0,-38.0,-34.0,-29.0,-32.0,-24.0,2
-25.0,-59.0,-72.0,363.0,58.0,117.0,48.0,35.0,-710.0,-190.0,-90.0,-9.0,95.0,341.0,1400.0,1352.0,2
26.0,27.0,28.0,-43.0,-1.0,-2.0,4.0,13.0,14.0,29.0,23.0,6.0,-6.0,-26.0,-99.0,-73.0,2
0.0,0.0,-1.0,-4.0,-5.0,-10.0,-18.0,-20.0,4.0,-1.0,-1.0,0.0,-3.0,-1.0,-5.0,-3.0,2
-25.0,-20.0,-11.0,2.0,-16.0,-17.0,-16.0,-16.0,-24.0,-22.0,-24.0,3.0,-12.0,-13.0,-7.0,-6.0,2
75.0,61.0,55.0,-159.0,-9.0,-17.0,-23.0,7.0,93.0,58.0,33.0,41.0,-11.0,-55.0,-251.0,-186.0,2
-15.0,-10.0,-6.0,-12.0,-37.0,-93.0,-38.0,-31.0,1362.0,340.0,184.0,-35.0,-140.0,-793.0,-1993.0,-1989.0,2
24.0,27.0,19.0,20.0,16.0,13.0,8.0,7.0,6.0,11.0,14.0,17.0,17.0,15.0,4.0,8.0,2
8.0,14.0,11.0,-33.0,-13.0,-13.0,-10.0,-7.0,8.0,24.0,24.0,-5.0,-33.0,-52.0,-165.0,-126.0,2
-50.0,-43.0,-26.0,138.0,10.0,10.0,-30.0,-21.0,-281.0,-106.0,-73.0,-19.0,-1.0,110.0,245.0,521.0,2
-12.0,-29.0,-20.0,54.0,-20.0,-15.0,43.0,94.0,66.0,28.0,8.0,-7.0,-35.0,-88.0,-124.0,-4.0,2
-5.0,-4.0,1.0,53.0,12.0,8.0,1.0,1.0,3.0,12.0,16.0,40.0,13.0,-4.0,35.0,87.0,2
-8.0,-7.0,-17.0,-44.0,-8.0,-6.0,-5.0,-4.0,-12.0,-14.0,-24.0,16.0,3.0,5.0,15.0,-3.0,2
3.0,-6.0,12.0,3.0,22.0,13.0,21.0,28.0,20.0,24.0,24.0,32.0,25.0,17.0,8.0,-4.0,2
27.0,29.0,37.0,-224.0,-14.0,-64.0,-104.0,-87.0,6.0,48.0,22.0,-70.0,-21.0,-64.0,-194.0,-145.0,2
17.0,17.0,13.0,-2.0,21.0,10.0,9.0,8.0,12.0,13.0,12.0,12.0,27.0,23.0,1.0,-16.0,2
-4.0,3.0,4.0,-98.0,-51.0,-124.0,-49.0,-35.0,1373.0,368.0,205.0,8.0,-189.0,-852.0,-1948.0,-1941.0,2
-21.0,-13.0,-1.0,4.0,-12.0,-12.0,-11.0,-13.0,-45.0,-4.0,5.0,-29.0,-11.0,-12.0,-5.0,-14.0,2
-10.0,-7.0,-5.0,-17.0,-13.0,-10.0,-14.0,-19.0,-14.0,-9.0,-8.0,-13.0,-12.0,-15.0,-14.0,-2.0,2
-89.0,-73.0,-40.0,232.0,70.0,136.0,290.0,357.0,-254.0,-95.0,-30.0,77.0,61.0,164.0,459.0,394.0,2
72.0,60.0,55.0,-27.0,3.0,-75.0,-163.0,-158.0,84.0,70.0,47.0,1.0,-9.0,-76.0,-267.0,-224.0,2
4.0,1.0,-4.0,8.0,1.0,-1.0,7.0,10.0,-5.0,-3.0,-6.0,3.0,11.0,7.0,15.0,5.0,2
21.0,9.0,4.0,51.0,3.0,-19.0,-64.0,-55.0,-24.0,8.0,7.0,14.0,12.0,26.0,78.0,63.0,2
27.0,27.0,31.0,28.0,19.0,19.0,21.0,25.0,23.0,29.0,28.0,32.0,21.0,18.0,25.0,17.0,2
-105.0,-50.0,-28.0,-114.0,60.0,163.0,227.0,57.0,17.0,-70.0,-48.0,-17.0,38.0,108.0,187.0,140.0,2
-91.0,-79.0,-84.0,570.0,75.0,247.0,519.0,563.0,-181.0,23.0,23.0,6.0,57.0,140.0,462.0,357.0,2
-1.0,-11.0,-14.0,8.0,-3.0,-3.0,0.0,1.0,82.0,1.0,4.0,-16.0,1.0,7.0,28.0,38.0,2
-17.0,-13.0,-32.0,-91.0,-126.0,-62.0,70.0,242.0,-37.0,4.0,-14.0,-69.0,-81.0,-57.0,-27.0,-39.0,2
38.0,24.0,27.0,-32.0,-36.0,-102.0,-235.0,-281.0,122.0,31.0,32.0,-41.0,-36.0,-66.0,-149.0,-133.0,2
21.0,27.0,16.0,14.0,13.0,11.0,5.0,2.0,4.0,5.0,8.0,12.0,14.0,16.0,5.0,11.0,2
-8.0,-12.0,-19.0,-33.0,-5.0,-16.0,-11.0,4.0,-7.0,-24.0,-42.0,-10.0,4.0,-4.0,11.0,21.0,2
15.0,27.0,-10.0,-68.0,43.0,19.0,10.0,-4.0,78.0,2.0,-27.0,-34.0,-3.0,2.0,-58.0,-21.0,2
3.0,1.0,1.0,4.0,-2.0,0.0,1.0,-5.0,-16.0,-3.0,-3.0,5.0,2.0,0.0,-8.0,11.0,2
-3.0,-4.0,-23.0,202.0,77.0,56.0,-14.0,-174.0,68.0,-41.0,-32.0,33.0,50.0,76.0,78.0,50.0,2
-27.0,-33.0,-32.0,-25.0,-21.0,-20.0,-24.0,-24.0,-4.0,-6.0,-11.0,-3.0,-13.0,-15.0,-16.0,-18.0,2
6.0,13.0,22.0,-18.0,-12.0,-27.0,-45.0,-45.0,66.0,38.0,33.0,10.0,-16.0,-74.0,-259.0,-252.0,2
13.0,27.0,2.0,-60.0,18.0,15.0,31.0,10.0,-60.0,9.0,23.0,26.0,13.0,60.0,178.0,163.0,2
0.0,6.0,5.0,32.0,26.0,11.0,6.0,4.0,-27.0,11.0,16.0,25.0,25.0,15.0,23.0,15.0,2
-2.0,7.0,8.0,13.0,8.0,21.0,62.0,78.0,-1.0,2.0,7.0,2.0,-1.0,6.0,6.0,10.0,2
15.0,6.0,2.0,-24.0,-4.0,-3.0,-3.0,-1.0,7.0,5.0,11.0,4.0,-2.0,-8.0,-21.0,-23.0,2
-11.0,-11.0,-7.0,10.0,-5.0,-3.0,-3.0,-7.0,-4.0,-5.0,-11.0,-12.0,-2.0,5.0,2.0,-5.0,2
-8.0,-24.0,-31.0,-109.0,-57.0,-131.0,-271.0,-317.0,95.0,12.0,-10.0,-12.0,-57.0,-101.0,-242.0,-228.0,2
37.0,9.0,-8.0,33.0,-26.0,-76.0,-197.0,-225.0,-25.0,17.0,10.0,4.0,-2.0,-7.0,5.0,23.0,2
43.0,41.0,29.0,-340.0,-116.0,-172.0,-217.0,-174.0,185.0,46.0,8.0,-111.0,-108.0,-240.0,-691.0,-563.0,2
-15.0,-7.0,-16.0,-8.0,-20.0,-12.0,-16.0,-20.0,-37.0,-25.0,-22.0,-31.0,-18.0,-12.0,-2.0,-12.0,2
-7.0,-21.0,-19.0,-11.0,-5.0,-4.0,1.0,12.0,145.0,-6.0,-3.0,2.0,-3.0,-4.0,8.0,24.0,2
42.0,-5.0,-25.0,273.0,-8.0,-5.0,-152.0,-214.0,-33.0,-13.0,-21.0,12.0,27.0,38.0,169.0,52.0,2
29.0,19.0,33.0,13.0,32.0,25.0,25.0,32.0,17.0,26.0,24.0,39.0,24.0,16.0,-33.0,-2.0,2
-45.0,-42.0,-33.0,76.0,20.0,119.0,190.0,271.0,-496.0,-121.0,-77.0,-22.0,54.0,267.0,910.0,800.0,2
-17.0,4.0,-6.0,-241.0,-56.0,-93.0,-139.0,-194.0,357.0,72.0,39.0,-32.0,-95.0,-287.0,-896.0,-821.0,2
18.0,19.0,13.0,-104.0,11.0,-9.0,-112.0,-103.0,-691.0,-113.0,-70.0,20.0,78.0,331.0,992.0,722.0,2
-11.0,4.0,-3.0,-12.0,1.0,-12.0,-15.0,-22.0,2.0,32.0,19.0,-11.0,-17.0,-51.0,-161.0,-122.0,2
-21.0,-15.0,-13.0,-22.0,-14.0,-13.0,-16.0,-18.0,-19.0,-16.0,-18.0,-11.0,-13.0,-9.0,8.0,-20.0,2
-29.0,-16.0,-6.0,6.0,-2.0,-9.0,-11.0,-12.0,-16.0,-11.0,-1.0,12.0,2.0,-5.0,-5.0,-26.0,2
10.0,2.0,-1.0,-63.0,-24.0,-23.0,-14.0,-3.0,-43.0,13.0,0.0,-18.0,-29.0,-33.0,-76.0,-53.0,2
-41.0,-24.0,-5.0,-84.0,-24.0,-66.0,-76.0,-90.0,212.0,66.0,36.0,-5.0,-61.0,-204.0,-652.0,-580.0,2
2.0,2.0,2.0,13.0,-15.0,8.0,24.0,25.0,-23.0,7.0,-7.0,-102.0,-18.0,7.0,11.0,41.0,2
-5.0,-6.0,-10.0,-12.0,-21.0,-29.0,-46.0,-41.0,-11.0,-12.0,-13.0,-14.0,-15.0,-18.0,-18.0,-19.0,2
90.0,96.0,128.0,293.0,166.0,30.0,-104.0,-215.0,150.0,119.0,134.0,171.0,109.0,19.0,-161.0,-149.0,2
1.0,14.0,14.0,-65.0,12.0,11.0,16.0,13.0,-46.0,1.0,4.0,7.0,8.0,11.0,24.0,-3.0,2
-36.0,-28.0,-12.0,40.0,-14.0,-37.0,-49.0,-30.0,-46.0,-39.0,-35.0,-13.0,-53.0,-62.0,-263.0,133.0,2
31.0,26.0,13.0,3.0,-4.0,-4.0,-28.0,-53.0,14.0,31.0,39.0,21.0,7.0,2.0,-10.0,-2.0,2
-5.0,27.0,39.0,-416.0,-30.0,-65.0,-54.0,-48.0,341.0,99.0,55.0,-9.0,-90.0,-275.0,-764.0,-680.0,2
28.0,21.0,20.0,-133.0,-31.0,-50.0,-45.0,-26.0,38.0,98.0,63.0,2.0,-59.0,-177.0,-469.0,-416.0,2
87.0,81.0,44.0,153.0,52.0,146.0,72.0,66.0,-328.0,-70.0,-27.0,-15.0,121.0,270.0,836.0,738.0,2
-14.0,-13.0,-18.0,-23.0,-24.0,-16.0,-13.0,-15.0,-25.0,-15.0,-17.0,-16.0,-15.0,-7.0,26.0,-7.0,2
-46.0,-44.0,-43.0,-12.0,-54.0,-45.0,-54.0,-53.0,-41.0,-47.0,-44.0,-44.0,-48.0,-40.0,-33.0,-33.0,2
-60.0,-34.0,-18.0,-25.0,23.0,34.0,65.0,25.0,105.0,-50.0,-64.0,-90.0,-28.0,-40.0,-115.0,-107.0,2
-27.0,-21.0,18.0,183.0,86.0,35.0,50.0,55.0,77.0,-11.0,19.0,27.0,31.0,20.0,-10.0,10.0,2
-30.0,-32.0,-8.0,27.0,-4.0,-78.0,-180.0,-238.0,284.0,37.0,10.0,14.0,-18.0,-172.0,-576.0,-553.0,2
43.0,27.0,3.0,-324.0,-113.0,-182.0,-278.0,-285.0,309.0,61.0,3.0,-105.0,-138.0,-311.0,-850.0,-698.0,2
-8.0,-3.0,-16.0,-17.0,-9.0,-3.0,-7.0,-9.0,-2.0,11.0,17.0,10.0,-3.0,-2.0,-9.0,2.0,2
0.0,10.0,13.0,51.0,-4.0,-23.0,-2.0,19.0,224.0,55.0,32.0,9.0,-25.0,-126.0,-412.0,-323.0,2
-1.0,5.0,15.0,-39.0,12.0,13.0,-2.0,-18.0,-3.0,13.0,12.0,14.0,5.0,-20.0,-63.0,-62.0,2
-10.0,-16.0,-5.0,120.0,41.0,120.0,166.0,262.0,-495.0,-105.0,-61.0,3.0,78.0,290.0,917.0,818.0,2
8.0,3.0,9.0,19.0,12.0,14.0,14.0,22.0,9.0,12.0,11.0,16.0,11.0,12.0,21.0,13.0,2
19.0,10.0,8.0,-1.0,-1.0,14.0,12.0,15.0,114.0,-17.0,-10.0,1.0,-2.0,4.0,1.0,3.0,2
-191.0,-164.0,-150.0,457.0,16.0,163.0,437.0,484.0,-296.0,-59.0,-25.0,3.0,19.0,73.0,377.0,268.0,2
15.0,23.0,27.0,37.0,45.0,51.0,25.0,30.0,-353.0,-111.0,-55.0,17.0,59.0,228.0,599.0,726.0,2
-44.0,-33.0,-20.0,-188.0,-81.0,-118.0,-96.0,-70.0,319.0,41.0,2.0,-43.0,-158.0,-352.0,-1067.0,-606.0,2
-3.0,-21.0,-18.0,-18.0,-22.0,-32.0,-43.0,-43.0,60.0,7.0,7.0,0.0,-26.0,-73.0,-226.0,-131.0,2
-5.0,10.0,14.0,-39.0,-14.0,-19.0,-19.0,-33.0,1.0,22.0,36.0,6.0,-30.0,-69.0,-193.0,-156.0,2
-110.0,-72.0,-31.0,212.0,76.0,124.0,254.0,266.0,-115.0,-80.0,-33.0,51.0,31.0,105.0,264.0,233.0,2
12.0,14.0,11.0,9.0,5.0,1.0,-9.0,-3.0,13.0,11.0,11.0,13.0,9.0,8.0,13.0,7.0,2
15.0,13.0,8.0,9.0,12.0,10.0,12.0,8.0,25.0,11.0,8.0,8.0,10.0,7.0,-95.0,-520.0,2
-5.0,-6.0,-7.0,-1.0,-8.0,-9.0,-12.0,-10.0,-1.0,-2.0,-4.0,-3.0,-7.0,-11.0,-13.0,2.0,2
48.0,50.0,68.0,-50.0,10.0,-4.0,-9.0,-12.0,114.0,98.0,75.0,66.0,-32.0,-93.0,-380.0,-285.0,2
20.0,27.0,38.0,32.0,25.0,21.0,25.0,28.0,18.0,24.0,31.0,23.0,25.0,21.0,31.0,42.0,2
-11.0,-14.0,-15.0,-14.0,-10.0,-12.0,-15.0,-7.0,-52.0,-4.0,4.0,26.0,0.0,5.0,-17.0,-21.0,2
-25.0,-20.0,-22.0,39.0,-5.0,20.0,60.0,64.0,-194.0,-60.0,-34.0,-11.0,17.0,93.0,377.0,298.0,2
-89.0,-39.0,-6.0,129.0,112.0,244.0,436.0,398.0,-741.0,-150.0,-62.0,37.0,109.0,485.0,1846.0,1858.0,2
42.0,42.0,37.0,-48.0,19.0,26.0,71.0,112.0,-27.0,18.0,19.0,18.0,12.0,6.0,-3.0,-41.0,2
39.0,14.0,1.0,72.0,-4.0,-37.0,-95.0,-78.0,-35.0,2.0,-14.0,9.0,10.0,25.0,83.0,61.0,2
-128.0,-69.0,-43.0,40.0,53.0,178.0,497.0,519.0,-14.0,-15.0,-40.0,15.0,7.0,35.0,94.0,130.0,2
31.0,30.0,39.0,21.0,40.0,38.0,31.0,23.0,37.0,41.0,48.0,31.0,38.0,40.0,27.0,31.0,2
39.0,35.0,43.0,-1.0,24.0,16.0,7.0,12.0,13.0,21.0,22.0,19.0,27.0,16.0,-27.0,0.0,2
-58.0,-17.0,8.0,-65.0,37.0,66.0,140.0,112.0,-48.0,-54.0,-33.0,-14.0,3.0,56.0,139.0,129.0,2
25.0,24.0,25.0,36.0,28.0,23.0,24.0,29.0,16.0,17.0,10.0,15.0,29.0,25.0,25.0,28.0,2
-117.0,-58.0,-41.0,-84.0,35.0,142.0,302.0,180.0,96.0,-26.0,-25.0,-24.0,-9.0,-25.0,-169.0,-182.0,2
-60.0,-68.0,-30.0,-20.0,-14.0,-21.0,-33.0,-39.0,-54.0,-74.0,-49.0,-15.0,-10.0,-20.0,-27.0,-19.0,2
54.0,79.0,70.0,-308.0,0.0,-66.0,-45.0,-36.0,1563.0,349.0,206.0,37.0,-111.0,-787.0,-1980.0,-1978.0,2
-19.0,-29.0,-33.0,-45.0,-37.0,-28.0,-26.0,-21.0,-8.0,-3.0,-6.0,-12.0,-30.0,-24.0,-17.0,8.0,2
-2.0,-4.0,11.0,21.0,23.0,17.0,8.0,10.0,-23.0,-7.0,-2.0,18.0,19.0,6.0,-30.0,-18.0,2
19.0,25.0,-16.0,-73.0,-41.0,21.0,28.0,11.0,-299.0,-68.0,-67.0,-43.0,90.0,204.0,528.0,465.0,2
55.0,51.0,52.0,62.0,33.0,24.0,3.0,18.0,36.0,50.0,47.0,50.0,37.0,39.0,68.0,72.0,2
6.0,-4.0,-29.0,-69.0,-88.0,-89.0,1.0,174.0,-39.0,-9.0,-24.0,-34.0,-63.0,-41.0,-27.0,-38.0,2
1.0,-5.0,1.0,26.0,11.0,-1.0,1.0,-6.0,-28.0,5.0,8.0,15.0,3.0,-10.0,-36.0,-26.0,2
-16.0,-2.0,12.0,-3.0,14.0,7.0,27.0,15.0,-7.0,4.0,2.0,64.0,-10.0,-27.0,-102.0,-85.0,2
-18.0,-17.0,-22.0,-25.0,-28.0,-34.0,-37.0,-37.0,-20.0,-23.0,-19.0,-26.0,-23.0,-26.0,-27.0,-27.0,2
34.0,45.0,40.0,39.0,20.0,13.0,12.0,20.0,14.0,19.0,17.0,-46.0,6.0,7.0,11.0,2.0,2
-48.0,-25.0,-20.0,-110.0,-21.0,-43.0,-37.0,-49.0,-126.0,-86.0,-60.0,-49.0,-33.0,-3.0,89.0,70.0,2
61.0,9.0,8.0,17.0,-78.0,-246.0,-629.0,-718.0,216.0,11.0,0.0,-20.0,-70.0,-160.0,-431.0,-287.0,2
30.0,27.0,7.0,-16.0,-4.0,4.0,12.0,17.0,25.0,13.0,10.0,-4.0,-1.0,12.0,16.0,-6.0,2
45.0,52.0,51.0,-33.0,49.0,16.0,19.0,25.0,126.0,106.0,80.0,37.0,21.0,-59.0,-321.0,-231.0,2
-3.0,-1.0,-1.0,7.0,-10.0,-2.0,-5.0,-15.0,-1.0,-2.0,-1.0,-24.0,-6.0,-6.0,19.0,-14.0,2
2.0,2.0,2.0,21.0,5.0,-4.0,-7.0,-3.0,3.0,4.0,-11.0,24.0,14.0,15.0,11.0,8.0,2
59.0,73.0,86.0,51.0,29.0,9.0,36.0,37.0,398.0,102.0,79.0,25.0,-28.0,-166.0,-534.0,-555.0,2
5.0,7.0,0.0,-9.0,-5.0,-5.0,6.0,8.0,8.0,15.0,6.0,7.0,2.0,1.0,17.0,22.0,2
-32.0,-33.0,-16.0,114.0,81.0,201.0,347.0,357.0,13.0,-36.0,-47.0,58.0,92.0,164.0,378.0,325.0,2
-12.0,-11.0,-9.0,-32.0,-30.0,-18.0,-3.0,3.0,-4.0,-13.0,-22.0,-44.0,-32.0,-23.0,-18.0,-19.0,2
-16.0,-16.0,-15.0,-27.0,-17.0,-19.0,-12.0,-8.0,-18.0,-24.0,-23.0,-18.0,-17.0,-10.0,-24.0,-37.0,2
-231.0,-155.0,-91.0,258.0,193.0,474.0,886.0,778.0,-51.0,-207.0,-140.0,32.0,108.0,333.0,807.0,656.0,2
-18.0,-32.0,-37.0,-2.0,-26.0,-24.0,-21.0,-8.0,-50.0,-34.0,-51.0,-12.0,-29.0,-16.0,-26.0,-35.0,2
-1.0,-1.0,-2.0,5.0,8.0,-3.0,-5.0,-2.0,3.0,1.0,1.0,3.0,6.0,0.0,0.0,-4.0,2
-46.0,-39.0,-43.0,-50.0,-30.0,-2.0,41.0,14.0,-111.0,-53.0,-45.0,-33.0,-13.0,20.0,151.0,76.0,2
26.0,21.0,23.0,13.0,20.0,14.0,22.0,35.0,32.0,17.0,18.0,41.0,29.0,15.0,10.0,16.0,2
39.0,22.0,19.0,57.0,8.0,-14.0,-54.0,-41.0,-5.0,14.0,13.0,18.0,21.0,31.0,84.0,74.0,2
-16.0,3.0,7.0,-266.0,-73.0,-139.0,-77.0,-60.0,1372.0,325.0,176.0,-18.0,-207.0,-880.0,-1951.0,-1938.0,2
-8.0,-6.0,-8.0,63.0,7.0,29.0,57.0,63.0,-176.0,-45.0,-18.0,10.0,32.0,118.0,387.0,313.0,2
43.0,19.0,30.0,168.0,39.0,-15.0,-135.0,-156.0,108.0,47.0,41.0,33.0,9.0,-11.0,-169.0,-56.0,2
20.0,25.0,25.0,5.0,18.0,10.0,11.0,11.0,11.0,12.0,16.0,22.0,19.0,15.0,14.0,3.0,2
-118.0,-111.0,-94.0,317.0,70.0,152.0,138.0,-8.0,-363.0,-168.0,-106.0,14.0,122.0,325.0,959.0,678.0,2
-57.0,-46.0,-5.0,196.0,80.0,120.0,225.0,223.0,-202.0,-99.0,-10.0,43.0,41.0,172.0,509.0,433.0,2
-31.0,-37.0,-20.0,159.0,21.0,24.0,-131.0,-148.0,-403.0,-135.0,-83.0,-12.0,41.0,211.0,576.0,729.0,2
-9.0,-24.0,-30.0,-20.0,-26.0,-44.0,-65.0,-46.0,-21.0,-41.0,-31.0,-16.0,-23.0,-29.0,-22.0,-15.0,2
-99.0,-23.0,4.0,-58.0,92.0,220.0,351.0,200.0,-21.0,-74.0,-39.0,14.0,56.0,138.0,252.0,189.0,2
132.0,27.0,11.0,93.0,-89.0,-249.0,-673.0,-585.0,-160.0,-56.0,-42.0,-27.0,-5.0,57.0,265.0,234.0,2
-60.0,-41.0,-20.0,-62.0,-50.0,-75.0,-65.0,-72.0,238.0,60.0,27.0,-33.0,-91.0,-231.0,-694.0,-623.0,2
31.0,25.0,37.0,60.0,42.0,31.0,22.0,25.0,10.0,23.0,29.0,36.0,36.0,24.0,11.0,14.0,2
26.0,25.0,33.0,-166.0,-14.0,-102.0,-218.0,-283.0,54.0,32.0,14.0,19.0,-31.0,-99.0,-305.0,-247.0,2
27.0,0.0,10.0,69.0,5.0,-10.0,-9.0,16.0,204.0,81.0,48.0,16.0,-23.0,-129.0,-320.0,-139.0,2
-3.0,-4.0,-4.0,-11.0,-14.0,-7.0,-13.0,-12.0,-10.0,-5.0,-1.0,30.0,-18.0,-7.0,-7.0,-8.0,2
21.0,26.0,20.0,-22.0,5.0,0.0,-13.0,-10.0,19.0,10.0,19.0,-5.0,9.0,0.0,-16.0,-6.0,2
22.0,19.0,15.0,14.0,1.0,5.0,8.0,13.0,10.0,29.0,15.0,-32.0,0.0,10.0,1.0,0.0,2
-37.0,-29.0,-33.0,-35.0,-11.0,29.0,64.0,48.0,-140.0,-52.0,-41.0,-30.0,8.0,74.0,262.0,175.0,2
-22.0,-39.0,-33.0,-70.0,-62.0,-54.0,-61.0,-60.0,18.0,-43.0,-50.0,-63.0,-50.0,-75.0,-206.0,-129.0,2
-9.0,-13.0,-14.0,-20.0,-23.0,-13.0,-7.0,0.0,-25.0,-8.0,-19.0,-25.0,-24.0,-17.0,-29.0,-41.0,2
-26.0,8.0,20.0,-436.0,-39.0,-58.0,-41.0,-29.0,190.0,101.0,46.0,-25.0,-78.0,-244.0,-794.0,-806.0,2
-7.0,-17.0,7.0,-17.0,33.0,26.0,41.0,68.0,-75.0,-19.0,3.0,-18.0,29.0,67.0,198.0,169.0,2
-1.0,4.0,2.0,2.0,5.0,8.0,14.0,14.0,8.0,4.0,8.0,24.0,9.0,4.0,4.0,1.0,2
7.0,2.0,-5.0,4.0,-3.0,-7.0,-10.0,-6.0,-10.0,-7.0,-5.0,-5.0,-6.0,-4.0,8.0,-24.0,2
30.0,19.0,19.0,-96.0,-44.0,-128.0,-254.0,-280.0,100.0,25.0,13.0,-10.0,-46.0,-112.0,-283.0,-251.0,2
15.0,23.0,53.0,32.0,43.0,26.0,23.0,16.0,38.0,78.0,68.0,56.0,18.0,-16.0,-122.0,-86.0,2
28.0,24.0,29.0,39.0,20.0,23.0,27.0,30.0,23.0,21.0,23.0,17.0,30.0,22.0,31.0,10.0,2
16.0,6.0,-13.0,-20.0,-42.0,-54.0,-35.0,-30.0,-264.0,-84.0,-86.0,-56.0,-16.0,63.0,273.0,353.0,2
-23.0,-32.0,-48.0,-50.0,-28.0,-16.0,-2.0,-7.0,-11.0,-18.0,-46.0,-8.0,-11.0,-25.0,-46.0,-35.0,2
-59.0,-31.0,-16.0,112.0,73.0,221.0,644.0,847.0,-167.0,-7.0,-3.0,8.0,31.0,106.0,341.0,284.0,2
3.0,4.0,9.0,14.0,0.0,-7.0,-11.0,-5.0,-2.0,8.0,27.0,-28.0,-1.0,0.0,11.0,0.0,2
