0,1,2,3,4,5,6,7,8,9,10,11,12,13,14,15,16,17,18,19,20,21,22,23,24
-5.0,-11.0,-9.0,-8.0,-8.0,13.0,9.0,2.0,-33.0,30.0,-4.0,-1.0,0.0,14.0,13.0,2.0,-2.0,-71.0,4.0,5.0,16.0,13.0,6.0,-1.0,1
25.0,40.0,28.0,25.0,24.0,23.0,12.0,12.0,-85.0,-70.0,33.0,15.0,19.0,11.0,23.0,15.0,3.0,7.0,12.0,7.0,8.0,14.0,11.0,1.0,1
10.0,-9.0,-12.0,-12.0,-16.0,-36.0,-80.0,-66.0,-34.0,-481.0,-13.0,-5.0,10.0,14.0,-24.0,-37.0,40.0,-89.0,-2.0,-2.0,-1.0,8.0,0.0,95.0,1
32.0,31.0,51.0,62.0,68.0,98.0,109.0,48.0,141.0,861.0,45.0,57.0,64.0,78.0,86.0,82.0,18.0,683.0,20.0,49.0,64.0,59.0,51.0,61.0,1
16.0,15.0,13.0,16.0,18.0,17.0,18.0,14.0,-20.0,-25.0,16.0,8.0,13.0,19.0,21.0,8.0,7.0,-2.0,7.0,-1.0,-6.0,13.0,12.0,0.0,1
-3.0,10.0,11.0,20.0,19.0,11.0,12.0,-16.0,18.0,19.0,9.0,14.0,20.0,7.0,9.0,4.0,14.0,11.0,3.0,10.0,15.0,12.0,15.0,25.0,1
-31.0,-60.0,-85.0,-80.0,-83.0,-92.0,-131.0,-91.0,329.0,349.0,-71.0,-75.0,-78.0,-79.0,-114.0,-27.0,3.0,760.0,-92.0,-83.0,-76.0,-69.0,-95.0,0.0,1
22.0,36.0,24.0,18.0,27.0,24.0,47.0,6.0,-2.0,-44.0,22.0,21.0,12.0,24.0,59.0,90.0,-9.0,-44.0,32.0,42.0,50.0,20.0,2.0,-22.0,1
57.0,83.0,78.0,65.0,70.0,62.0,54.0,61.0,222.0,852.0,89.0,72.0,78.0,82.0,64.0,95.0,107.0,821.0,46.0,46.0,62.0,82.0,112.0,161.0,1
-16.0,-28.0,-24.0,-32.0,-37.0,-30.0,-42.0,-24.0,-25.0,-70.0,-24.0,-25.0,-39.0,-43.0,-35.0,-17.0,17.0,64.0,-12.0,-7.0,-4.0,-17.0,-7.0,17.0,1
15.0,-2.0,8.0,6.0,-6.0,-10.0,13.0,42.0,16.0,233.0,-11.0,7.0,15.0,34.0,22.0,1.0,-18.0,114.0,-40.0,8.0,12.0,5.0,0.0,1.0,1
-16.0,-13.0,-18.0,-28.0,-36.0,-41.0,-30.0,5.0,-56.0,-56.0,-16.0,-28.0,-45.0,-51.0,-29.0,-29.0,-26.0,-9.0,-12.0,-3.0,-5.0,-25.0,-23.0,-35.0,1
-27.0,-33.0,-23.0,-28.0,4.0,-64.0,-59.0,-39.0,-76.0,-359.0,-32.0,-26.0,-2.0,27.0,-24.0,-79.0,-56.0,2.0,-15.0,-33.0,-50.0,-12.0,-48.0,-41.0,1
20.0,-37.0,21.0,31.0,32.0,43.0,50.0,63.0,-21.0,46.0,14.0,27.0,37.0,39.0,45.0,38.0,-22.0,-58.0,2.0,14.0,20.0,21.0,32.0,25.0,1
45.0,38.0,33.0,36.0,34.0,19.0,29.0,19.0,36.0,28.0,34.0,29.0,37.0,47.0,36.0,29.0,53.0,27.0,38.0,39.0,33.0,21.0,35.0,57.0,1
-5.0,0.0,-20.0,-14.0,0.0,-37.0,-43.0,-32.0,0.0,-9.0,-10.0,-15.0,-7.0,-14.0,-29.0,-30.0,-8.0,-3.0,-3.0,-28.0,-48.0,-9.0,-11.0,0.0,1
29.0,22.0,17.0,12.0,8.0,-8.0,13.0,11.0,-390.0,-354.0,3.0,4.0,12.0,6.0,9.0,-7.0,189.0,-1198.0,10.0,12.0,5.0,8.0,25.0,-30.0,1
-38.0,-31.0,-30.0,-35.0,-35.0,-33.0,-47.0,-39.0,63.0,-150.0,-47.0,-30.0,-24.0,2.0,-9.0,-36.0,-15.0,594.0,-35.0,-23.0,-20.0,-15.0,-19.0,21.0,1
27.0,38.0,30.0,28.0,27.0,23.0,29.0,34.0,14.0,-22.0,29.0,21.0,27.0,35.0,30.0,33.0,19.0,-44.0,20.0,14.0,9.0,10.0,17.0,25.0,1
89.0,106.0,38.0,0.0,-10.0,-37.0,-67.0,-42.0,420.0,396.0,44.0,7.0,-13.0,-28.0,-35.0,92.0,32.0,421.0,29.0,25.0,13.0,6.0,19.0,88.0,1
25.0,10.0,-12.0,-21.0,-14.0,-47.0,-51.0,-52.0,-4.0,-30.0,-2.0,-23.0,-48.0,-38.0,-97.0,-125.0,121.0,-138.0,11.0,-14.0,-35.0,-24.0,-46.0,113.0,1
-39.0,-7.0,-23.0,-8.0,5.0,24.0,56.0,-44.0,-214.0,-186.0,-51.0,-25.0,-5.0,1.0,1.0,-126.0,-111.0,-431.0,-51.0,-27.0,-10.0,4.0,-50.0,-173.0,1
21.0,29.0,23.0,22.0,24.0,33.0,20.0,21.0,-258.0,-101.0,47.0,21.0,29.0,33.0,24.0,13.0,-9.0,307.0,4.0,21.0,17.0,3.0,15.0,35.0,1
26.0,35.0,33.0,22.0,16.0,15.0,19.0,14.0,-144.0,-213.0,14.0,10.0,16.0,17.0,21.0,10.0,10.0,-216.0,14.0,14.0,15.0,21.0,17.0,-28.0,1
10.0,19.0,8.0,19.0,44.0,7.0,0.0,0.0,-4.0,1.0,2.0,9.0,35.0,25.0,5.0,10.0,17.0,-164.0,4.0,-6.0,-11.0,11.0,14.0,4.0,1
22.0,23.0,5.0,-9.0,-14.0,-19.0,-66.0,1.0,163.0,523.0,23.0,-3.0,5.0,0.0,-3.0,70.0,81.0,811.0,-13.0,-8.0,0.0,18.0,30.0,159.0,1
13.0,1.0,-8.0,4.0,8.0,12.0,21.0,12.0,-29.0,-6.0,9.0,7.0,5.0,1.0,3.0,9.0,4.0,-126.0,12.0,2.0,-1.0,-9.0,-8.0,-13.0,1
-74.0,18.0,27.0,39.0,62.0,54.0,135.0,116.0,-158.0,-156.0,55.0,41.0,66.0,84.0,86.0,-22.0,-100.0,-253.0,38.0,42.0,43.0,41.0,48.0,-39.0,1
-27.0,-53.0,-71.0,-34.0,-25.0,-24.0,-14.0,-17.0,-106.0,-48.0,-21.0,-30.0,-27.0,-27.0,-24.0,-17.0,-21.0,-95.0,24.0,-15.0,-24.0,-28.0,-24.0,-34.0,1
29.0,27.0,16.0,5.0,1.0,4.0,2.0,4.0,31.0,39.0,21.0,14.0,0.0,-8.0,-1.0,21.0,22.0,30.0,18.0,16.0,19.0,8.0,1.0,18.0,1
1.0,20.0,13.0,15.0,9.0,9.0,8.0,10.0,-44.0,-184.0,13.0,19.0,21.0,8.0,8.0,-5.0,6.0,-109.0,19.0,22.0,23.0,21.0,17.0,23.0,1
-43.0,-34.0,-35.0,-38.0,-41.0,-55.0,-46.0,-46.0,-36.0,-116.0,-36.0,-32.0,-40.0,-61.0,-58.0,-40.0,-20.0,-4.0,-37.0,-34.0,-31.0,-34.0,-32.0,-9.0,1
-62.0,-59.0,-60.0,-62.0,-64.0,-65.0,-74.0,-56.0,-45.0,-25.0,-60.0,-57.0,-66.0,-73.0,-72.0,-62.0,-52.0,-27.0,-56.0,-60.0,-63.0,-59.0,-53.0,-40.0,1
17.0,12.0,21.0,29.0,48.0,56.0,79.0,69.0,9.0,-22.0,14.0,27.0,54.0,52.0,46.0,-5.0,45.0,-12.0,-5.0,0.0,-3.0,34.0,41.0,25.0,1
-73.0,-47.0,-33.0,-16.0,1.0,0.0,0.0,-41.0,1.0,24.0,-32.0,-18.0,6.0,-11.0,-22.0,-121.0,-27.0,6.0,-11.0,-32.0,-37.0,-22.0,-35.0,-43.0,1
-33.0,-15.0,-21.0,-17.0,-16.0,-19.0,-19.0,-14.0,-536.0,-641.0,-21.0,-12.0,-13.0,-11.0,-4.0,-22.0,54.0,-921.0,23.0,-7.0,-14.0,-12.0,-21.0,-44.0,1
-39.0,-34.0,-14.0,-16.0,-24.0,-5.0,7.0,32.0,-72.0,-118.0,-20.0,-16.0,-21.0,-21.0,-18.0,-54.0,-30.0,-96.0,-10.0,-7.0,-1.0,-12.0,-26.0,-37.0,1
-29.0,-62.0,-48.0,-45.0,-50.0,-28.0,-24.0,-3.0,-57.0,-116.0,-47.0,-35.0,-38.0,-39.0,-21.0,2.0,-13.0,-78.0,-30.0,-23.0,-8.0,-18.0,-12.0,-15.0,1
20.0,18.0,19.0,14.0,-2.0,-11.0,-4.0,12.0,18.0,4.0,20.0,16.0,-6.0,-12.0,5.0,48.0,29.0,-26.0,13.0,17.0,25.0,12.0,19.0,27.0,1
23.0,54.0,19.0,20.0,34.0,8.0,4.0,-27.0,20.0,-33.0,2.0,-4.0,8.0,13.0,-26.0,-115.0,4.0,32.0,-10.0,-33.0,-75.0,-12.0,-20.0,21.0,1
11.0,21.0,21.0,28.0,54.0,38.0,58.0,44.0,-131.0,66.0,29.0,14.0,17.0,38.0,51.0,74.0,-59.0,100.0,0.0,0.0,2.0,17.0,17.0,-48.0,1
-16.0,-6.0,0.0,-3.0,7.0,17.0,-4.0,-7.0,29.0,-93.0,-41.0,8.0,21.0,34.0,17.0,-14.0,130.0,-1.0,23.0,11.0,19.0,7.0,-59.0,-160.0,1
45.0,3.0,-8.0,-19.0,-37.0,-42.0,-65.0,1.0,74.0,702.0,44.0,-7.0,-21.0,-23.0,-23.0,47.0,56.0,510.0,-6.0,-8.0,5.0,2.0,-2.0,66.0,1
-10.0,11.0,-20.0,-32.0,-37.0,-39.0,-42.0,-39.0,-225.0,-345.0,-17.0,-27.0,-45.0,-50.0,-41.0,-46.0,-13.0,-169.0,-9.0,-14.0,-16.0,-39.0,-57.0,-64.0,1
25.0,22.0,7.0,-3.0,-7.0,-10.0,-8.0,-41.0,60.0,56.0,3.0,5.0,-10.0,-4.0,3.0,51.0,14.0,-2.0,1.0,17.0,18.0,6.0,20.0,21.0,1
26.0,25.0,20.0,21.0,20.0,17.0,11.0,16.0,14.0,13.0,18.0,17.0,17.0,22.0,21.0,28.0,10.0,0.0,8.0,8.0,7.0,10.0,15.0,13.0,1
-1.0,-8.0,14.0,3.0,2.0,-3.0,-1.0,-5.0,-399.0,-440.0,-34.0,-3.0,3.0,6.0,15.0,-16.0,-14.0,-551.0,-2.0,0.0,2.0,3.0,-25.0,-67.0,1
-18.0,-21.0,-22.0,-13.0,-3.0,8.0,31.0,-12.0,-6.0,-77.0,-36.0,-24.0,-22.0,-23.0,-3.0,-90.0,-16.0,-113.0,-44.0,-34.0,-32.0,-23.0,-37.0,-33.0,1
29.0,50.0,45.0,35.0,32.0,30.0,29.0,-50.0,315.0,80.0,32.0,23.0,16.0,15.0,0.0,-88.0,23.0,300.0,8.0,-7.0,-13.0,-1.0,-15.0,-15.0,1
-19.0,2.0,1.0,7.0,-2.0,2.0,8.0,-39.0,-52.0,-424.0,-13.0,7.0,5.0,8.0,5.0,-7.0,-28.0,-37.0,-4.0,2.0,2.0,17.0,19.0,1.0,1
-62.0,-36.0,-29.0,-29.0,-26.0,-31.0,-26.0,-35.0,-124.0,-314.0,-39.0,-36.0,-27.0,-31.0,-35.0,-80.0,-68.0,-264.0,-40.0,-39.0,-47.0,-39.0,-38.0,-56.0,1
8.0,40.0,36.0,42.0,52.0,40.0,41.0,0.0,94.0,135.0,49.0,40.0,52.0,66.0,52.0,17.0,50.0,271.0,44.0,17.0,16.0,38.0,78.0,88.0,1
3.0,-49.0,-53.0,-57.0,-62.0,-99.0,-122.0,-31.0,25.0,-209.0,-67.0,-44.0,-43.0,-48.0,-97.0,-23.0,23.0,220.0,-23.0,-50.0,-59.0,-56.0,-64.0,-31.0,1
-3.0,-23.0,-20.0,-33.0,-38.0,-32.0,-43.0,-26.0,-30.0,-19.0,-17.0,-32.0,-63.0,-43.0,-38.0,-20.0,4.0,-5.0,-32.0,-14.0,-4.0,-26.0,-22.0,-8.0,1
12.0,26.0,25.0,32.0,32.0,36.0,40.0,33.0,-62.0,-251.0,25.0,30.0,28.0,30.0,35.0,7.0,5.0,-211.0,35.0,28.0,32.0,21.0,16.0,-1.0,1
-12.0,1.0,-15.0,-14.0,-8.0,7.0,24.0,19.0,-33.0,-28.0,-16.0,-14.0,-2.0,2.0,10.0,8.0,-18.0,18.0,-16.0,-20.0,-5.0,-9.0,0.0,-15.0,1
-62.0,-36.0,-20.0,-37.0,-35.0,-30.0,-37.0,-44.0,-4.0,146.0,-35.0,-29.0,-33.0,-36.0,-41.0,-31.0,-31.0,-250.0,-25.0,-33.0,-28.0,-28.0,-28.0,-66.0,1
8.0,-2.0,-4.0,0.0,-3.0,-11.0,-33.0,-16.0,9.0,19.0,-5.0,-12.0,-7.0,-11.0,-17.0,23.0,7.0,-6.0,-7.0,-21.0,-25.0,-12.0,-4.0,25.0,1
21.0,31.0,24.0,19.0,9.0,14.0,18.0,25.0,21.0,17.0,21.0,12.0,9.0,-3.0,-1.0,17.0,15.0,-24.0,3.0,8.0,18.0,3.0,10.0,20.0,1
-19.0,-45.0,-27.0,-29.0,-44.0,-17.0,-1.0,20.0,-57.0,-128.0,-30.0,-23.0,-38.0,-47.0,-35.0,-30.0,-30.0,-133.0,-29.0,-8.0,4.0,-15.0,-31.0,-62.0,1
34.0,37.0,15.0,5.0,-4.0,-11.0,9.0,10.0,45.0,-127.0,8.0,19.0,20.0,31.0,42.0,19.0,13.0,-7.0,19.0,21.0,24.0,22.0,19.0,-5.0,1
-22.0,-40.0,-41.0,-40.0,-43.0,-31.0,-30.0,-47.0,-37.0,-78.0,-31.0,-22.0,-30.0,0.0,2.0,-6.0,7.0,-222.0,-8.0,-4.0,9.0,-9.0,-5.0,-2.0,1
45.0,48.0,68.0,90.0,92.0,110.0,110.0,58.0,230.0,398.0,59.0,76.0,96.0,91.0,93.0,154.0,27.0,358.0,53.0,58.0,62.0,46.0,33.0,27.0,1
-6.0,-35.0,-48.0,-52.0,-56.0,-53.0,-99.0,-75.0,-29.0,-180.0,-46.0,-52.0,-50.0,-47.0,-56.0,-11.0,21.0,-388.0,-28.0,-41.0,-47.0,-34.0,-19.0,14.0,1
-21.0,-34.0,-13.0,-23.0,-23.0,-27.0,-29.0,-27.0,-95.0,-116.0,-29.0,-20.0,-17.0,-4.0,-8.0,-19.0,36.0,-826.0,29.0,-6.0,-14.0,-16.0,-11.0,-45.0,1
52.0,27.0,33.0,29.0,8.0,31.0,33.0,25.0,161.0,857.0,44.0,40.0,30.0,17.0,26.0,50.0,42.0,696.0,27.0,36.0,35.0,17.0,-1.0,108.0,1
-50.0,-66.0,-76.0,-86.0,-75.0,-74.0,-90.0,-113.0,-19.0,-54.0,-77.0,-74.0,-91.0,-105.0,-125.0,-91.0,-63.0,4.0,-53.0,-49.0,-63.0,-87.0,-87.0,-10.0,1
-45.0,-39.0,-40.0,-34.0,-47.0,-38.0,-52.0,-15.0,-13.0,-9.0,-49.0,-30.0,-31.0,-52.0,-61.0,-33.0,32.0,83.0,-44.0,-15.0,-2.0,-15.0,-27.0,14.0,1
-44.0,-39.0,-51.0,-46.0,-38.0,-66.0,-62.0,-59.0,-43.0,59.0,-70.0,-53.0,-33.0,-54.0,-66.0,-50.0,-38.0,128.0,-27.0,-36.0,-65.0,-40.0,-57.0,-57.0,1
24.0,22.0,14.0,10.0,10.0,11.0,-25.0,-3.0,7.0,8.0,18.0,13.0,7.0,13.0,21.0,53.0,17.0,39.0,10.0,6.0,0.0,7.0,19.0,21.0,1
-4.0,-11.0,-6.0,-1.0,13.0,-28.0,-27.0,-4.0,-20.0,-42.0,-15.0,-3.0,5.0,-5.0,-28.0,-11.0,-6.0,-120.0,0.0,-7.0,-12.0,-15.0,-21.0,-19.0,1
-143.0,-107.0,-92.0,-63.0,-51.0,-56.0,-72.0,-70.0,-131.0,44.0,-95.0,-60.0,-52.0,-56.0,-49.0,-25.0,-50.0,-347.0,-52.0,-65.0,-73.0,-66.0,-56.0,-105.0,1
82.0,74.0,55.0,53.0,64.0,47.0,40.0,48.0,53.0,-8.0,51.0,50.0,51.0,41.0,39.0,67.0,53.0,-45.0,42.0,31.0,34.0,32.0,27.0,54.0,1
25.0,33.0,22.0,10.0,4.0,-8.0,-16.0,5.0,46.0,38.0,23.0,12.0,-1.0,-3.0,-2.0,20.0,29.0,-103.0,25.0,17.0,19.0,14.0,11.0,20.0,1
-7.0,-5.0,-22.0,4.0,6.0,5.0,1.0,0.0,-124.0,-99.0,10.0,3.0,3.0,8.0,11.0,-10.0,14.0,-643.0,29.0,5.0,0.0,2.0,1.0,-18.0,1
33.0,35.0,24.0,20.0,11.0,10.0,4.0,21.0,-2.0,-263.0,25.0,21.0,18.0,12.0,13.0,13.0,22.0,-59.0,38.0,26.0,23.0,12.0,-4.0,-32.0,1
-11.0,-23.0,-27.0,-25.0,-30.0,-31.0,-26.0,-25.0,-8.0,-2.0,-18.0,-33.0,-27.0,-24.0,-20.0,-15.0,-25.0,-75.0,-35.0,-27.0,-25.0,-22.0,-14.0,-20.0,1
-10.0,-22.0,-3.0,-12.0,2.0,-1.0,8.0,7.0,28.0,22.0,-2.0,4.0,-3.0,6.0,12.0,-9.0,-28.0,-16.0,15.0,17.0,17.0,10.0,2.0,-1.0,1
16.0,-16.0,-12.0,-16.0,-18.0,0.0,-25.0,5.0,14.0,-16.0,-9.0,-8.0,-9.0,-10.0,6.0,53.0,25.0,-147.0,-9.0,4.0,9.0,3.0,4.0,5.0,1
-11.0,-6.0,-10.0,-8.0,-9.0,-25.0,3.0,-3.0,78.0,138.0,-13.0,-11.0,-12.0,-10.0,-19.0,9.0,-11.0,362.0,-12.0,-7.0,-4.0,-19.0,-26.0,-60.0,1
-2.0,8.0,21.0,4.0,2.0,-8.0,-2.0,-3.0,-170.0,-225.0,1.0,13.0,0.0,-15.0,-21.0,-11.0,-12.0,-352.0,-22.0,-15.0,-15.0,-14.0,-14.0,-56.0,1
91.0,71.0,63.0,53.0,43.0,56.0,14.0,7.0,304.0,590.0,69.0,53.0,46.0,34.0,31.0,128.0,120.0,695.0,47.0,51.0,49.0,45.0,38.0,147.0,1
47.0,25.0,26.0,21.0,33.0,32.0,46.0,-7.0,23.0,87.0,28.0,35.0,46.0,70.0,79.0,108.0,-2.0,21.0,27.0,32.0,32.0,42.0,74.0,-15.0,1
-3.0,4.0,10.0,4.0,0.0,0.0,-8.0,0.0,-25.0,7.0,-10.0,8.0,4.0,9.0,6.0,1.0,3.0,-69.0,-4.0,9.0,11.0,19.0,15.0,3.0,1
-12.0,-17.0,-28.0,-28.0,-34.0,-29.0,-41.0,-64.0,-4.0,-17.0,-27.0,-20.0,-27.0,-36.0,-32.0,-9.0,15.0,-78.0,-19.0,-8.0,-5.0,-21.0,-18.0,-5.0,1
-15.0,-24.0,-13.0,-6.0,5.0,-20.0,-52.0,-102.0,162.0,242.0,-8.0,-18.0,-24.0,14.0,-12.0,-3.0,31.0,295.0,-22.0,-16.0,2.0,0.0,3.0,84.0,1
20.0,42.0,16.0,12.0,15.0,-2.0,15.0,39.0,-167.0,-163.0,11.0,11.0,15.0,29.0,38.0,21.0,-3.0,-213.0,22.0,15.0,7.0,9.0,15.0,-42.0,1
-24.0,-3.0,-8.0,-12.0,-7.0,-5.0,-25.0,-21.0,8.0,-50.0,-5.0,-5.0,-12.0,-18.0,-6.0,27.0,-6.0,200.0,4.0,5.0,10.0,5.0,6.0,16.0,1
-7.0,-34.0,17.0,14.0,16.0,59.0,69.0,60.0,149.0,489.0,29.0,27.0,-12.0,12.0,37.0,20.0,23.0,680.0,23.0,39.0,62.0,35.0,27.0,67.0,1
-63.0,-54.0,-52.0,-54.0,-61.0,-35.0,-49.0,-58.0,-148.0,-260.0,-85.0,-53.0,-46.0,-72.0,-45.0,-61.0,-5.0,-69.0,-22.0,-38.0,-45.0,-63.0,-85.0,-144.0,1
-19.0,-18.0,-24.0,-32.0,-41.0,-48.0,-51.0,-38.0,-3.0,4.0,-21.0,-31.0,-41.0,-42.0,-47.0,-22.0,17.0,39.0,-21.0,-31.0,-36.0,-44.0,-32.0,-13.0,1
85.0,81.0,45.0,29.0,28.0,39.0,9.0,87.0,349.0,270.0,49.0,35.0,39.0,43.0,55.0,141.0,57.0,328.0,31.0,24.0,31.0,33.0,64.0,59.0,1
-5.0,20.0,15.0,11.0,6.0,0.0,5.0,-7.0,-33.0,-165.0,10.0,21.0,17.0,17.0,12.0,-7.0,19.0,-93.0,14.0,19.0,23.0,17.0,9.0,29.0,1
31.0,-6.0,-1.0,1.0,-4.0,19.0,11.0,-3.0,76.0,748.0,35.0,9.0,-2.0,-7.0,-10.0,34.0,-4.0,477.0,-20.0,11.0,23.0,-5.0,-18.0,23.0,1
118.0,114.0,89.0,76.0,68.0,90.0,101.0,54.0,273.0,829.0,100.0,80.0,84.0,99.0,118.0,119.0,84.0,831.0,76.0,71.0,62.0,88.0,90.0,138.0,1
-53.0,-53.0,-17.0,-7.0,-7.0,-7.0,0.0,9.0,-68.0,-4.0,-16.0,-4.0,7.0,24.0,8.0,-31.0,-24.0,-111.0,-13.0,-8.0,-5.0,2.0,0.0,-14.0,1
31.0,22.0,10.0,12.0,8.0,21.0,-7.0,-25.0,113.0,366.0,14.0,12.0,32.0,27.0,8.0,65.0,19.0,647.0,-26.0,3.0,-7.0,25.0,33.0,73.0,1
6.0,17.0,12.0,10.0,-3.0,25.0,44.0,-20.0,-18.0,12.0,8.0,8.0,7.0,18.0,31.0,-48.0,-24.0,-37.0,8.0,16.0,19.0,11.0,-4.0,-24.0,1
8.0,51.0,27.0,29.0,40.0,19.0,1.0,32.0,-86.0,-71.0,12.0,19.0,16.0,21.0,36.0,15.0,-45.0,25.0,-5.0,17.0,25.0,23.0,22.0,12.0,1
-14.0,-24.0,-2.0,3.0,2.0,-2.0,5.0,-1.0,-33.0,-33.0,-16.0,2.0,9.0,11.0,3.0,7.0,3.0,-85.0,-14.0,2.0,6.0,2.0,-10.0,-6.0,1
14.0,6.0,7.0,14.0,24.0,14.0,-2.0,34.0,29.0,-146.0,1.0,20.0,21.0,36.0,31.0,47.0,19.0,8.0,27.0,14.0,9.0,30.0,47.0,35.0,1
24.0,42.0,34.0,32.0,45.0,13.0,1.0,17.0,-51.0,-154.0,29.0,25.0,14.0,16.0,17.0,44.0,39.0,-35.0,51.0,32.0,37.0,21.0,13.0,17.0,1
-69.0,-52.0,-47.0,-43.0,-44.0,-54.0,-52.0,-61.0,-58.0,-67.0,-44.0,-47.0,-42.0,-48.0,-43.0,-50.0,-34.0,-37.0,-51.0,-43.0,-39.0,-34.0,-24.0,-25.0,1
4.0,16.0,12.0,9.0,1.0,10.0,1.0,3.0,40.0,16.0,13.0,15.0,15.0,24.0,19.0,26.0,-48.0,27.0,37.0,8.0,3.0,8.0,10.0,11.0,1
-25.0,-10.0,-5.0,-9.0,-14.0,-17.0,-12.0,-11.0,-75.0,-64.0,-11.0,-14.0,-18.0,-18.0,-16.0,-16.0,17.0,-179.0,-33.0,-23.0,-16.0,-12.0,-8.0,-10.0,1
-64.0,-64.0,-42.0,-32.0,-18.0,-32.0,-44.0,-71.0,-50.0,-38.0,-43.0,-32.0,-24.0,-32.0,-52.0,-85.0,-47.0,79.0,-44.0,-35.0,-29.0,-33.0,-45.0,-27.0,1
-26.0,9.0,-20.0,-17.0,-17.0,-11.0,-12.0,-37.0,-70.0,-51.0,-16.0,-10.0,-25.0,-22.0,-31.0,-63.0,-26.0,-62.0,7.0,-3.0,-7.0,-8.0,-7.0,-18.0,1
35.0,31.0,35.0,28.0,14.0,22.0,16.0,42.0,58.0,92.0,39.0,32.0,14.0,14.0,22.0,48.0,48.0,82.0,44.0,36.0,46.0,34.0,40.0,46.0,1
-3.0,-20.0,-5.0,-5.0,3.0,3.0,3.0,12.0,-161.0,-287.0,-8.0,-9.0,3.0,18.0,15.0,3.0,-5.0,-152.0,0.0,-2.0,10.0,1.0,-10.0,-45.0,1
-44.0,-35.0,-27.0,-29.0,-41.0,-43.0,-43.0,-50.0,-42.0,-41.0,-23.0,-25.0,-35.0,-51.0,-44.0,-46.0,-24.0,-50.0,-11.0,-13.0,-18.0,-27.0,-37.0,-49.0,1
61.0,62.0,24.0,12.0,0.0,-52.0,-9.0,36.0,94.0,-126.0,22.0,6.0,0.0,1.0,19.0,58.0,59.0,-367.0,79.0,12.0,24.0,33.0,45.0,39.0,1
-7.0,-50.0,-37.0,-24.0,-19.0,-1.0,-8.0,-40.0,-29.0,540.0,-10.0,-33.0,-48.0,-42.0,-41.0,10.0,-12.0,411.0,-69.0,-31.0,-18.0,-34.0,-45.0,0.0,1
11.0,16.0,12.0,17.0,26.0,20.0,29.0,27.0,-42.0,-148.0,3.0,11.0,13.0,23.0,23.0,1.0,3.0,-72.0,0.0,6.0,4.0,18.0,18.0,21.0,1
-71.0,-101.0,-72.0,-53.0,-47.0,-51.0,-28.0,140.0,-190.0,-257.0,-90.0,-57.0,-44.0,-54.0,-24.0,-3.0,-71.0,-82.0,-74.0,-35.0,-15.0,-28.0,-22.0,-47.0,1
-39.0,-47.0,-50.0,-49.0,-50.0,-62.0,-88.0,-69.0,-174.0,31.0,-26.0,-47.0,-47.0,-41.0,-42.0,-24.0,-32.0,49.0,-43.0,-43.0,-51.0,-39.0,-28.0,-26.0,1
56.0,57.0,52.0,47.0,55.0,68.0,59.0,55.0,49.0,40.0,55.0,51.0,45.0,44.0,46.0,46.0,45.0,3.0,46.0,40.0,34.0,37.0,38.0,41.0,1
-14.0,-37.0,-44.0,-56.0,-61.0,-31.0,-8.0,11.0,174.0,-60.0,-51.0,-34.0,-51.0,15.0,17.0,20.0,-5.0,486.0,-52.0,-31.0,-9.0,-9.0,-30.0,-47.0,1
3.0,3.0,3.0,5.0,-14.0,-29.0,-3.0,2.0,-117.0,-224.0,4.0,-3.0,-6.0,-32.0,-30.0,-24.0,38.0,4.0,-18.0,0.0,-7.0,-12.0,-13.0,17.0,1
-51.0,-33.0,-41.0,-24.0,-27.0,-27.0,-24.0,-29.0,-253.0,-258.0,-9.0,-22.0,-26.0,-35.0,-32.0,-43.0,6.0,-972.0,11.0,-16.0,-19.0,-15.0,-25.0,-53.0,1
29.0,27.0,20.0,21.0,25.0,26.0,12.0,19.0,43.0,56.0,17.0,19.0,24.0,21.0,16.0,23.0,35.0,-3.0,33.0,29.0,23.0,19.0,23.0,27.0,1
74.0,52.0,30.0,35.0,50.0,30.0,3.0,-14.0,380.0,361.0,31.0,29.0,48.0,29.0,13.0,78.0,92.0,464.0,34.0,10.0,-6.0,3.0,30.0,73.0,1
-7.0,-14.0,-10.0,-14.0,-16.0,-20.0,-3.0,-2.0,-17.0,-42.0,-6.0,-7.0,-21.0,-32.0,-13.0,-14.0,-13.0,-44.0,6.0,7.0,10.0,-8.0,-15.0,-12.0,1
35.0,39.0,19.0,3.0,-12.0,-5.0,-34.0,-11.0,52.0,109.0,22.0,8.0,-10.0,-17.0,-7.0,41.0,27.0,-114.0,21.0,7.0,10.0,4.0,16.0,25.0,1
20.0,6.0,-15.0,-23.0,-24.0,0.0,19.0,19.0,24.0,-92.0,-14.0,-11.0,-8.0,13.0,29.0,-31.0,3.0,14.0,1.0,3.0,13.0,-9.0,-37.0,-131.0,1
2.0,3.0,2.0,-7.0,-15.0,-13.0,-13.0,7.0,27.0,62.0,10.0,1.0,-17.0,-12.0,-9.0,-5.0,15.0,47.0,17.0,14.0,20.0,8.0,15.0,23.0,1
-53.0,-35.0,-32.0,-31.0,-38.0,-38.0,-35.0,-36.0,-280.0,-822.0,-21.0,-40.0,-35.0,-39.0,-45.0,-51.0,-8.0,236.0,-47.0,-28.0,-33.0,-43.0,-39.0,-25.0,1
76.0,74.0,80.0,72.0,45.0,59.0,86.0,84.0,1.0,-417.0,76.0,83.0,68.0,35.0,43.0,10.0,24.0,-65.0,74.0,70.0,62.0,48.0,52.0,47.0,1
-2.0,0.0,-9.0,-9.0,-14.0,-12.0,-33.0,-17.0,-8.0,-70.0,-8.0,-10.0,-19.0,-23.0,-16.0,3.0,12.0,-27.0,-6.0,-4.0,1.0,-10.0,-4.0,6.0,1
68.0,25.0,21.0,17.0,12.0,21.0,61.0,106.0,37.0,54.0,25.0,26.0,27.0,21.0,28.0,1.0,30.0,74.0,20.0,24.0,20.0,31.0,21.0,5.0,1
22.0,29.0,18.0,6.0,2.0,-12.0,-17.0,6.0,41.0,33.0,20.0,10.0,-3.0,-4.0,-4.0,17.0,27.0,-103.0,23.0,15.0,17.0,13.0,10.0,19.0,1
18.0,20.0,11.0,12.0,5.0,13.0,4.0,17.0,-194.0,80.0,27.0,12.0,35.0,23.0,20.0,46.0,14.0,10.0,10.0,8.0,14.0,37.0,22.0,21.0,1
39.0,50.0,55.0,62.0,67.0,58.0,81.0,70.0,24.0,14.0,43.0,51.0,42.0,60.0,65.0,-5.0,39.0,-5.0,32.0,36.0,40.0,30.0,11.0,-33.0,1
5.0,22.0,20.0,4.0,-3.0,13.0,8.0,25.0,-3.0,-9.0,21.0,16.0,4.0,7.0,6.0,19.0,3.0,-41.0,11.0,18.0,27.0,8.0,7.0,-1.0,1
47.0,0.0,-23.0,-31.0,-32.0,-7.0,0.0,15.0,111.0,56.0,-16.0,-25.0,-47.0,-29.0,-66.0,-29.0,20.0,83.0,-16.0,1.0,1.0,-14.0,11.0,38.0,1
40.0,54.0,34.0,43.0,50.0,43.0,108.0,77.0,618.0,-727.0,-64.0,36.0,50.0,72.0,61.0,-20.0,7.0,-87.0,33.0,23.0,23.0,29.0,-2.0,-85.0,1
64.0,59.0,55.0,62.0,58.0,72.0,59.0,77.0,53.0,51.0,55.0,58.0,76.0,84.0,80.0,74.0,21.0,63.0,51.0,48.0,65.0,69.0,66.0,48.0,1
31.0,7.0,17.0,27.0,30.0,34.0,54.0,54.0,19.0,16.0,13.0,27.0,27.0,48.0,64.0,61.0,-10.0,19.0,24.0,23.0,40.0,29.0,36.0,12.0,1
-3.0,9.0,-2.0,-11.0,-16.0,-6.0,-44.0,-5.0,-17.0,64.0,6.0,3.0,-13.0,1.0,-2.0,55.0,27.0,4.0,17.0,12.0,21.0,2.0,20.0,47.0,1
16.0,11.0,-6.0,-11.0,-15.0,-20.0,-25.0,-36.0,18.0,5.0,-7.0,-5.0,-14.0,-7.0,-5.0,22.0,23.0,-69.0,-3.0,-8.0,-15.0,-7.0,2.0,8.0,1
21.0,29.0,32.0,35.0,34.0,30.0,51.0,14.0,-73.0,-68.0,38.0,38.0,11.0,33.0,40.0,16.0,7.0,-46.0,36.0,29.0,29.0,25.0,19.0,-8.0,1
16.0,23.0,21.0,29.0,31.0,27.0,38.0,31.0,-69.0,-261.0,12.0,27.0,24.0,23.0,25.0,8.0,-11.0,-183.0,14.0,30.0,39.0,20.0,14.0,4.0,1
-22.0,-15.0,-12.0,-5.0,-2.0,-6.0,-32.0,-32.0,92.0,-92.0,-21.0,-7.0,-3.0,-12.0,-5.0,32.0,-10.0,26.0,-21.0,-13.0,-9.0,-9.0,2.0,1.0,1
19.0,-10.0,2.0,9.0,4.0,24.0,37.0,29.0,-29.0,-195.0,0.0,5.0,13.0,0.0,16.0,9.0,21.0,-232.0,14.0,4.0,7.0,8.0,7.0,9.0,1
28.0,28.0,35.0,37.0,46.0,34.0,42.0,40.0,-16.0,-136.0,32.0,34.0,48.0,51.0,33.0,17.0,29.0,-64.0,35.0,18.0,-3.0,26.0,34.0,32.0,1
-32.0,-25.0,-45.0,-46.0,-52.0,-39.0,-32.0,-39.0,-55.0,-1.0,-46.0,-38.0,-22.0,4.0,-24.0,-97.0,13.0,-57.0,-25.0,-21.0,-14.0,-28.0,-62.0,-18.0,1
-1.0,7.0,2.0,3.0,1.0,0.0,2.0,-1.0,-662.0,32.0,59.0,0.0,3.0,-5.0,-7.0,-19.0,-38.0,26.0,-27.0,-6.0,-6.0,-7.0,-8.0,8.0,1
-9.0,-11.0,-3.0,2.0,-6.0,-11.0,-3.0,3.0,-6.0,183.0,-4.0,-1.0,-4.0,10.0,0.0,-6.0,-12.0,90.0,2.0,-3.0,4.0,-1.0,-9.0,-1.0,1
14.0,37.0,1.0,-8.0,-14.0,-10.0,4.0,37.0,42.0,89.0,4.0,-10.0,-29.0,-21.0,5.0,10.0,-5.0,77.0,-3.0,1.0,24.0,3.0,4.0,-4.0,1
37.0,29.0,19.0,15.0,12.0,16.0,16.0,19.0,35.0,42.0,23.0,21.0,8.0,1.0,2.0,19.0,30.0,32.0,21.0,17.0,23.0,13.0,-1.0,15.0,1
0.0,12.0,-2.0,2.0,9.0,12.0,-2.0,-3.0,-25.0,-28.0,5.0,-6.0,-8.0,4.0,-11.0,-16.0,9.0,9.0,3.0,-18.0,-34.0,-10.0,-13.0,-1.0,1
20.0,7.0,1.0,2.0,5.0,-16.0,0.0,-7.0,25.0,12.0,-1.0,-8.0,-4.0,6.0,-8.0,-7.0,59.0,-49.0,-8.0,-12.0,-17.0,-13.0,-20.0,-4.0,1
-32.0,-16.0,-19.0,-20.0,-21.0,-8.0,-14.0,-25.0,-301.0,-769.0,-26.0,-25.0,-20.0,-30.0,-28.0,-36.0,21.0,-236.0,-15.0,-17.0,-18.0,-35.0,-42.0,-71.0,1
-41.0,-29.0,-22.0,-24.0,-22.0,-39.0,-102.0,-77.0,-73.0,-508.0,-24.0,-29.0,-39.0,-42.0,-26.0,79.0,-12.0,-153.0,-24.0,-37.0,-46.0,-20.0,6.0,27.0,1
-125.0,-132.0,-107.0,-103.0,-99.0,-91.0,-117.0,-126.0,-69.0,-36.0,-107.0,-90.0,-89.0,-85.0,-89.0,-88.0,-93.0,-39.0,-95.0,-74.0,-78.0,-52.0,-29.0,-16.0,1
-24.0,3.0,4.0,13.0,25.0,32.0,31.0,6.0,-9.0,19.0,-6.0,4.0,16.0,11.0,30.0,29.0,-22.0,-27.0,-19.0,-20.0,-32.0,-8.0,-11.0,-27.0,1
-31.0,-46.0,-50.0,-54.0,-66.0,-59.0,-102.0,-55.0,11.0,-180.0,-53.0,-45.0,-39.0,-62.0,-65.0,22.0,34.0,7.0,-28.0,-30.0,-28.0,-28.0,-33.0,14.0,1
-13.0,-14.0,10.0,28.0,42.0,57.0,80.0,48.0,-30.0,4.0,3.0,22.0,45.0,41.0,59.0,54.0,-7.0,-7.0,9.0,6.0,7.0,17.0,9.0,13.0,1
-25.0,-16.0,-1.0,-11.0,-14.0,-23.0,-14.0,-18.0,-341.0,-431.0,-11.0,-12.0,-15.0,-25.0,-22.0,-30.0,-14.0,-566.0,-1.0,-13.0,-12.0,-20.0,-29.0,-75.0,1
-63.0,-100.0,-53.0,-37.0,-38.0,-26.0,-58.0,-60.0,-59.0,-44.0,-50.0,-33.0,-41.0,-36.0,-39.0,-43.0,-15.0,-14.0,-31.0,-30.0,-22.0,-32.0,-16.0,-3.0,1
-134.0,-141.0,-128.0,-114.0,-99.0,-9.0,-65.0,-145.0,-101.0,-380.0,-119.0,-97.0,-122.0,-114.0,-73.0,-85.0,-56.0,-463.0,-69.0,-45.0,-29.0,-80.0,-75.0,-64.0,1
139.0,117.0,95.0,90.0,110.0,108.0,110.0,140.0,153.0,166.0,92.0,71.0,95.0,89.0,93.0,129.0,29.0,-101.0,66.0,65.0,57.0,85.0,118.0,167.0,1
-24.0,-39.0,-52.0,-62.0,-55.0,-79.0,-99.0,-55.0,-31.0,-44.0,-45.0,-59.0,-70.0,-75.0,-61.0,10.0,-29.0,-84.0,-50.0,-49.0,-53.0,-45.0,-35.0,-20.0,1
16.0,10.0,3.0,6.0,13.0,23.0,20.0,17.0,18.0,35.0,5.0,4.0,20.0,18.0,12.0,14.0,-1.0,-44.0,-7.0,-12.0,-18.0,15.0,14.0,4.0,1
-53.0,-43.0,-44.0,-44.0,-44.0,-42.0,-40.0,-53.0,-156.0,-281.0,-65.0,-41.0,-30.0,-6.0,-34.0,-65.0,-21.0,-84.0,-36.0,-34.0,-38.0,-70.0,-100.0,-137.0,1
15.0,11.0,2.0,0.0,-11.0,-9.0,-69.0,-82.0,166.0,145.0,2.0,9.0,14.0,35.0,24.0,25.0,119.0,240.0,3.0,8.0,24.0,23.0,10.0,69.0,1
60.0,50.0,71.0,88.0,103.0,117.0,98.0,97.0,264.0,830.0,63.0,75.0,103.0,108.0,93.0,54.0,54.0,932.0,25.0,27.0,25.0,44.0,47.0,62.0,1
-31.0,-12.0,14.0,26.0,31.0,35.0,39.0,39.0,-1.0,117.0,1.0,21.0,27.0,16.0,11.0,-38.0,-2.0,256.0,-34.0,4.0,14.0,33.0,42.0,31.0,1
3.0,-19.0,-38.0,-33.0,-43.0,-19.0,-17.0,-17.0,213.0,3.0,-34.0,-21.0,-37.0,-28.0,-16.0,14.0,15.0,246.0,-23.0,-17.0,-5.0,-21.0,-42.0,-61.0,1
71.0,57.0,46.0,31.0,10.0,29.0,21.0,23.0,296.0,961.0,95.0,48.0,2.0,5.0,21.0,102.0,65.0,527.0,57.0,41.0,44.0,25.0,34.0,63.0,1
20.0,25.0,17.0,14.0,12.0,12.0,13.0,15.0,-163.0,-666.0,21.0,19.0,21.0,32.0,31.0,7.0,79.0,-90.0,20.0,22.0,23.0,15.0,1.0,-30.0,1
19.0,27.0,29.0,33.0,30.0,30.0,29.0,12.0,-95.0,-90.0,34.0,27.0,23.0,14.0,14.0,9.0,8.0,4.0,20.0,12.0,15.0,19.0,20.0,4.0,1
0.0,15.0,21.0,26.0,23.0,15.0,57.0,83.0,-191.0,-190.0,16.0,20.0,27.0,16.0,29.0,33.0,-16.0,-184.0,25.0,15.0,4.0,11.0,-1.0,-76.0,1
-23.0,-24.0,-25.0,-21.0,-16.0,-9.0,4.0,7.0,285.0,356.0,-38.0,-18.0,-13.0,-13.0,-11.0,-13.0,30.0,299.0,-20.0,-9.0,-8.0,-8.0,-6.0,32.0,1
-58.0,-55.0,-5.0,-27.0,-22.0,-25.0,-12.0,-22.0,-49.0,121.0,-70.0,-25.0,-34.0,-61.0,-46.0,-25.0,-54.0,-34.0,-48.0,-33.0,-54.0,-73.0,-60.0,-56.0,1
5.0,-14.0,8.0,14.0,16.0,11.0,23.0,29.0,20.0,8.0,7.0,10.0,13.0,7.0,13.0,29.0,12.0,32.0,-18.0,-8.0,-2.0,0.0,0.0,-10.0,1
-19.0,-25.0,-24.0,-21.0,-22.0,-26.0,-45.0,-24.0,-65.0,-16.0,-18.0,-16.0,-9.0,0.0,-10.0,-6.0,-9.0,-71.0,-5.0,-14.0,-16.0,-12.0,-10.0,-17.0,1
12.0,18.0,18.0,24.0,27.0,24.0,39.0,26.0,-37.0,-292.0,11.0,16.0,17.0,13.0,11.0,-23.0,8.0,-85.0,17.0,12.0,3.0,2.0,-5.0,-27.0,1
14.0,20.0,9.0,-3.0,-12.0,-3.0,-18.0,-19.0,-3.0,-10.0,20.0,6.0,-15.0,-30.0,-9.0,15.0,-2.0,-109.0,26.0,7.0,6.0,-6.0,-9.0,-26.0,1
-56.0,-23.0,-10.0,-8.0,-12.0,-7.0,-12.0,-27.0,-38.0,-49.0,-7.0,0.0,-18.0,-16.0,-2.0,12.0,6.0,-43.0,2.0,12.0,25.0,7.0,19.0,19.0,1
-33.0,-34.0,-35.0,-33.0,-27.0,-37.0,-30.0,-18.0,18.0,17.0,-24.0,-33.0,-39.0,-33.0,-30.0,-14.0,-97.0,-264.0,-31.0,-33.0,-43.0,-36.0,0.0,12.0,1
43.0,39.0,49.0,56.0,59.0,68.0,55.0,33.0,76.0,212.0,22.0,46.0,50.0,63.0,68.0,75.0,61.0,357.0,40.0,33.0,36.0,46.0,59.0,80.0,1
-22.0,-24.0,-16.0,-22.0,-26.0,-36.0,-24.0,-11.0,2.0,-41.0,-21.0,-20.0,-32.0,-30.0,-27.0,-13.0,-14.0,6.0,-19.0,-9.0,-4.0,-19.0,-14.0,-8.0,1
-32.0,-24.0,-29.0,-36.0,-40.0,-32.0,-20.0,27.0,-52.0,39.0,-25.0,-25.0,-34.0,-67.0,-76.0,-80.0,-63.0,138.0,-25.0,-12.0,-17.0,-25.0,-38.0,-54.0,1
-46.0,-39.0,-9.0,1.0,0.0,8.0,39.0,-7.0,-289.0,-449.0,-35.0,-14.0,6.0,5.0,-5.0,-50.0,-64.0,-214.0,-48.0,-18.0,-34.0,-43.0,-67.0,-111.0,1
-12.0,-23.0,-48.0,-18.0,-5.0,3.0,-8.0,-12.0,-102.0,-121.0,-32.0,-7.0,14.0,31.0,16.0,-4.0,38.0,-347.0,34.0,11.0,20.0,37.0,9.0,-35.0,1
16.0,20.0,5.0,-15.0,-22.0,-5.0,-20.0,-11.0,-73.0,-81.0,9.0,4.0,-30.0,-36.0,6.0,87.0,8.0,-103.0,19.0,21.0,18.0,-16.0,-24.0,-45.0,1
1.0,19.0,-10.0,-18.0,-23.0,-23.0,-33.0,-28.0,29.0,16.0,-15.0,-21.0,-20.0,-39.0,-43.0,-35.0,24.0,-58.0,-37.0,-32.0,-27.0,-25.0,-29.0,-5.0,1
9.0,7.0,11.0,14.0,18.0,11.0,14.0,8.0,17.0,-21.0,10.0,9.0,16.0,23.0,16.0,10.0,3.0,39.0,-1.0,10.0,14.0,15.0,11.0,9.0,1
17.0,30.0,19.0,16.0,10.0,1.0,20.0,27.0,42.0,23.0,15.0,10.0,4.0,1.0,10.0,19.0,29.0,37.0,12.0,18.0,23.0,26.0,30.0,48.0,1
-47.0,-28.0,-22.0,-16.0,-19.0,-18.0,-9.0,-64.0,205.0,-21.0,-26.0,-16.0,-25.0,-63.0,-65.0,-72.0,24.0,537.0,-16.0,-21.0,-35.0,-66.0,-83.0,-40.0,1
-2.0,-5.0,-3.0,4.0,1.0,4.0,15.0,10.0,-25.0,-59.0,-5.0,-5.0,-5.0,-8.0,-7.0,-5.0,-13.0,-86.0,-15.0,-14.0,-11.0,-17.0,-14.0,-19.0,1
51.0,69.0,51.0,37.0,39.0,9.0,-22.0,-1.0,39.0,97.0,55.0,25.0,21.0,14.0,-3.0,46.0,31.0,-24.0,34.0,-4.0,-21.0,9.0,20.0,23.0,1
23.0,47.0,51.0,44.0,30.0,35.0,64.0,67.0,-128.0,-132.0,49.0,49.0,37.0,30.0,43.0,34.0,16.0,-110.0,50.0,36.0,35.0,23.0,43.0,11.0,1
15.0,17.0,10.0,14.0,11.0,24.0,15.0,29.0,8.0,10.0,8.0,13.0,25.0,27.0,23.0,27.0,3.0,-12.0,3.0,5.0,14.0,11.0,20.0,14.0,1
-11.0,-46.0,-39.0,-44.0,-55.0,-67.0,-121.0,-70.0,-79.0,-198.0,-55.0,-33.0,-33.0,-28.0,-40.0,53.0,-4.0,26.0,1.0,-15.0,-17.0,-19.0,-4.0,-33.0,1
8.0,2.0,-12.0,-11.0,-16.0,-23.0,-38.0,-44.0,-21.0,-430.0,-27.0,-16.0,-18.0,-27.0,-39.0,0.0,2.0,-41.0,-9.0,-18.0,-9.0,-14.0,-6.0,26.0,1
-95.0,-63.0,-48.0,-54.0,-54.0,-67.0,-82.0,-98.0,-60.0,80.0,-54.0,-50.0,-41.0,-33.0,-35.0,10.0,-30.0,452.0,-99.0,-69.0,-56.0,-24.0,0.0,6.0,1
-28.0,-38.0,-36.0,-50.0,-55.0,-48.0,-58.0,-25.0,9.0,23.0,-35.0,-36.0,-62.0,-54.0,-29.0,17.0,21.0,85.0,-37.0,-12.0,-7.0,-24.0,-3.0,13.0,1
-53.0,-28.0,17.0,32.0,34.0,33.0,64.0,36.0,-48.0,-46.0,6.0,24.0,44.0,39.0,35.0,-16.0,21.0,-53.0,4.0,3.0,-5.0,19.0,7.0,-37.0,1
18.0,33.0,27.0,33.0,43.0,46.0,73.0,60.0,-27.0,40.0,21.0,15.0,35.0,29.0,37.0,-6.0,-21.0,-115.0,21.0,5.0,-1.0,21.0,11.0,-35.0,1
-30.0,42.0,29.0,-5.0,-18.0,-14.0,2.0,7.0,125.0,252.0,34.0,9.0,-11.0,-16.0,-1.0,1.0,-39.0,205.0,38.0,21.0,9.0,9.0,3.0,-21.0,1
-29.0,-22.0,-16.0,-19.0,-22.0,-22.0,-25.0,-27.0,-287.0,-367.0,0.0,-17.0,-20.0,-29.0,-32.0,-36.0,-18.0,331.0,-32.0,-16.0,-23.0,-34.0,-39.0,-13.0,1
-41.0,-45.0,-17.0,-13.0,-30.0,-51.0,-60.0,-78.0,321.0,738.0,-4.0,-11.0,-9.0,-19.0,-58.0,-4.0,78.0,682.0,-13.0,-26.0,-35.0,-48.0,-33.0,41.0,1
-68.0,-64.0,-60.0,-56.0,-47.0,-44.0,-47.0,-36.0,-120.0,-116.0,-63.0,-44.0,-49.0,-32.0,-31.0,-35.0,-38.0,-118.0,-39.0,-28.0,-29.0,-33.0,-35.0,-35.0,1
60.0,62.0,65.0,67.0,64.0,62.0,58.0,62.0,12.0,-60.0,61.0,68.0,80.0,84.0,76.0,52.0,49.0,-23.0,59.0,59.0,54.0,73.0,68.0,68.0,1
-60.0,-56.0,-62.0,-55.0,-57.0,-50.0,-47.0,-56.0,-326.0,-727.0,-45.0,-53.0,-55.0,-52.0,-64.0,-75.0,-59.0,334.0,-59.0,-41.0,-50.0,-58.0,-55.0,-40.0,1
-29.0,-36.0,-25.0,-18.0,-6.0,-16.0,22.0,16.0,-39.0,-224.0,-45.0,-36.0,-14.0,-14.0,-11.0,-62.0,-79.0,-138.0,-52.0,-57.0,-82.0,-37.0,-56.0,-86.0,1
22.0,25.0,16.0,14.0,13.0,18.0,19.0,24.0,16.0,16.0,14.0,13.0,14.0,14.0,13.0,17.0,6.0,-8.0,8.0,19.0,25.0,12.0,13.0,8.0,1
0.0,14.0,4.0,8.0,11.0,27.0,15.0,4.0,-244.0,-134.0,-2.0,22.0,22.0,34.0,30.0,10.0,46.0,-332.0,12.0,19.0,24.0,21.0,6.0,-39.0,1
30.0,2.0,7.0,9.0,8.0,15.0,10.0,31.0,-188.0,91.0,34.0,12.0,15.0,12.0,31.0,57.0,10.0,-34.0,19.0,14.0,15.0,17.0,21.0,13.0,1
29.0,25.0,2.0,-1.0,2.0,-9.0,13.0,12.0,-27.0,-72.0,-8.0,-20.0,-11.0,-12.0,-3.0,16.0,-23.0,-64.0,-1.0,-7.0,-13.0,-18.0,-26.0,-31.0,1
-22.0,-20.0,-44.0,-18.0,-17.0,-20.0,-15.0,-14.0,-111.0,-73.0,-2.0,-18.0,-19.0,-21.0,-20.0,-23.0,-11.0,-517.0,26.0,-14.0,-16.0,-14.0,-14.0,-26.0,1
-12.0,14.0,0.0,6.0,14.0,7.0,28.0,25.0,33.0,-150.0,-11.0,15.0,5.0,-20.0,-20.0,-44.0,15.0,22.0,6.0,3.0,10.0,-5.0,-9.0,28.0,1
-3.0,-8.0,-6.0,-8.0,-16.0,-16.0,-26.0,-50.0,-35.0,-39.0,-7.0,-5.0,1.0,5.0,7.0,8.0,6.0,-24.0,-37.0,-13.0,-6.0,-13.0,-1.0,10.0,1
-18.0,-17.0,-15.0,-12.0,-19.0,-25.0,-17.0,-18.0,-238.0,-154.0,13.0,-16.0,-18.0,-22.0,-23.0,-50.0,-75.0,417.0,-21.0,-19.0,-21.0,-25.0,-37.0,-9.0,1
-30.0,-41.0,-45.0,-47.0,-54.0,-63.0,-49.0,-59.0,-232.0,43.0,-22.0,-35.0,-47.0,-77.0,-71.0,-113.0,-24.0,-64.0,-31.0,-28.0,-28.0,-40.0,-47.0,-20.0,1
-39.0,-41.0,-48.0,-62.0,-62.0,-69.0,-62.0,-56.0,-49.0,-65.0,-93.0,-66.0,-68.0,-72.0,-65.0,-64.0,-49.0,-114.0,-39.0,-60.0,-73.0,-83.0,-86.0,-96.0,1
-63.0,-40.0,-55.0,-12.0,-4.0,-2.0,3.0,-8.0,-52.0,-136.0,-39.0,-17.0,-7.0,-6.0,-3.0,-22.0,70.0,-86.0,21.0,-6.0,-13.0,-37.0,-41.0,-88.0,1
7.0,21.0,16.0,19.0,17.0,23.0,22.0,14.0,-324.0,-630.0,41.0,11.0,13.0,16.0,15.0,-8.0,-58.0,108.0,3.0,13.0,8.0,0.0,22.0,70.0,1
84.0,93.0,91.0,98.0,108.0,112.0,131.0,102.0,169.0,138.0,78.0,89.0,116.0,106.0,95.0,-32.0,29.0,221.0,69.0,70.0,70.0,74.0,69.0,13.0,1
4.0,1.0,-27.0,-31.0,-35.0,-18.0,-8.0,7.0,-33.0,-42.0,-26.0,-31.0,-58.0,-51.0,-30.0,10.0,-23.0,-18.0,-11.0,-5.0,8.0,-22.0,-11.0,-20.0,1
-12.0,-8.0,-8.0,-4.0,-5.0,-2.0,-18.0,-12.0,7.0,-219.0,-13.0,-2.0,0.0,-5.0,-2.0,-22.0,14.0,285.0,-23.0,-4.0,-2.0,3.0,-2.0,27.0,1
-40.0,-37.0,-16.0,-9.0,-11.0,-6.0,8.0,-15.0,-252.0,33.0,-2.0,3.0,5.0,-3.0,-4.0,-37.0,-20.0,-56.0,0.0,5.0,12.0,0.0,-5.0,-29.0,1
2.0,14.0,13.0,12.0,13.0,-3.0,22.0,32.0,81.0,349.0,31.0,12.0,32.0,20.0,12.0,38.0,71.0,807.0,-17.0,-8.0,-17.0,21.0,32.0,64.0,1
-17.0,47.0,-3.0,14.0,31.0,9.0,17.0,28.0,-131.0,-79.0,-16.0,-4.0,19.0,27.0,-9.0,-26.0,-37.0,-118.0,-1.0,-18.0,-33.0,-1.0,-7.0,-59.0,1
24.0,20.0,23.0,24.0,23.0,31.0,21.0,19.0,-20.0,-106.0,20.0,27.0,29.0,23.0,30.0,25.0,19.0,-49.0,32.0,34.0,34.0,33.0,29.0,31.0,1
20.0,25.0,17.0,18.0,20.0,12.0,19.0,19.0,-220.0,-111.0,8.0,26.0,27.0,34.0,38.0,24.0,56.0,-328.0,35.0,24.0,27.0,24.0,12.0,-28.0,1
-4.0,-12.0,-12.0,-15.0,-25.0,-10.0,19.0,-22.0,-51.0,-119.0,-10.0,-6.0,-19.0,-15.0,-13.0,-32.0,-25.0,-72.0,-5.0,10.0,20.0,-23.0,-47.0,-67.0,1
-1.0,47.0,64.0,80.0,106.0,130.0,208.0,124.0,214.0,122.0,52.0,61.0,112.0,111.0,130.0,67.0,-99.0,610.0,9.0,-6.0,-8.0,53.0,-3.0,-139.0,1
-18.0,-29.0,-25.0,-6.0,0.0,4.0,1.0,-7.0,-64.0,-42.0,-15.0,-4.0,-3.0,-1.0,-5.0,-8.0,-11.0,-257.0,31.0,2.0,-6.0,-4.0,-3.0,-18.0,1
16.0,29.0,31.0,35.0,36.0,36.0,45.0,30.0,-26.0,-6.0,19.0,31.0,27.0,9.0,8.0,15.0,51.0,-30.0,34.0,25.0,23.0,5.0,-17.0,-7.0,1
-43.0,-39.0,-44.0,-48.0,-51.0,-36.0,-37.0,-19.0,-39.0,-46.0,-43.0,-38.0,-46.0,-55.0,-34.0,-16.0,-28.0,0.0,-31.0,-25.0,-21.0,-33.0,-26.0,-37.0,1
-9.0,24.0,28.0,31.0,33.0,37.0,67.0,20.0,-161.0,63.0,37.0,23.0,24.0,22.0,27.0,-18.0,-22.0,30.0,-1.0,21.0,27.0,19.0,2.0,-19.0,1
31.0,20.0,1.0,-6.0,-10.0,-12.0,-62.0,-8.0,18.0,-24.0,7.0,0.0,-10.0,-3.0,0.0,64.0,51.0,-63.0,24.0,10.0,5.0,8.0,28.0,53.0,1
19.0,14.0,5.0,-7.0,-19.0,-15.0,-71.0,-43.0,43.0,-30.0,10.0,5.0,-9.0,-15.0,0.0,97.0,31.0,103.0,11.0,12.0,16.0,-4.0,19.0,45.0,1
12.0,6.0,11.0,14.0,15.0,25.0,32.0,31.0,-7.0,-10.0,15.0,14.0,8.0,14.0,15.0,15.0,8.0,23.0,12.0,8.0,14.0,11.0,11.0,5.0,1
-43.0,-47.0,-33.0,-26.0,-22.0,-14.0,-25.0,-27.0,70.0,195.0,-32.0,-22.0,-11.0,-14.0,-15.0,-37.0,6.0,129.0,-45.0,-22.0,-22.0,-20.0,-23.0,-3.0,1
-8.0,3.0,-14.0,-19.0,-25.0,-19.0,-23.0,-5.0,-19.0,-70.0,-10.0,-17.0,-6.0,-7.0,-6.0,1.0,-25.0,7.0,9.0,-7.0,-6.0,-5.0,1.0,-4.0,1
-30.0,-39.0,-32.0,-17.0,-11.0,-19.0,-16.0,-24.0,19.0,-3.0,-24.0,-18.0,-9.0,-12.0,-16.0,-27.0,2.0,261.0,8.0,-3.0,-8.0,-2.0,-4.0,11.0,1
43.0,55.0,50.0,55.0,47.0,35.0,50.0,48.0,-436.0,-307.0,60.0,54.0,58.0,55.0,46.0,28.0,155.0,-640.0,37.0,55.0,61.0,68.0,62.0,44.0,1
24.0,32.0,20.0,11.0,10.0,18.0,68.0,47.0,-97.0,-87.0,15.0,9.0,-2.0,18.0,11.0,-25.0,-28.0,-156.0,8.0,6.0,3.0,-6.0,-14.0,-39.0,1
31.0,39.0,29.0,26.0,38.0,18.0,10.0,17.0,48.0,47.0,28.0,21.0,20.0,-1.0,-5.0,28.0,4.0,62.0,8.0,3.0,-4.0,7.0,7.0,13.0,1
42.0,40.0,14.0,7.0,2.0,-9.0,-19.0,3.0,-87.0,-286.0,14.0,7.0,-8.0,-27.0,-12.0,19.0,64.0,-164.0,42.0,17.0,9.0,-9.0,-22.0,-35.0,1
-28.0,-29.0,-23.0,-23.0,-17.0,-28.0,-22.0,-56.0,-282.0,-53.0,-9.0,-28.0,-27.0,-16.0,-45.0,-62.0,-14.0,-115.0,-32.0,-25.0,-25.0,-22.0,-23.0,23.0,1
15.0,19.0,17.0,12.0,8.0,12.0,24.0,19.0,-93.0,63.0,31.0,9.0,-5.0,1.0,5.0,4.0,-18.0,157.0,-2.0,3.0,4.0,19.0,12.0,-9.0,1
-27.0,-123.0,6.0,33.0,43.0,34.0,7.0,27.0,-42.0,-116.0,-6.0,32.0,48.0,40.0,28.0,17.0,42.0,132.0,-20.0,25.0,24.0,25.0,24.0,28.0,1
-21.0,8.0,-2.0,2.0,-2.0,-7.0,-2.0,-47.0,298.0,393.0,-13.0,-10.0,-13.0,-32.0,-59.0,-64.0,72.0,589.0,-29.0,1.0,6.0,-13.0,-45.0,31.0,1
36.0,38.0,27.0,27.0,37.0,56.0,55.0,54.0,-48.0,-271.0,27.0,25.0,44.0,39.0,44.0,7.0,-4.0,-223.0,33.0,20.0,14.0,23.0,19.0,-10.0,1
-29.0,-22.0,-25.0,-27.0,-26.0,-22.0,-26.0,-27.0,-392.0,-567.0,1.0,-20.0,-15.0,-16.0,-14.0,-33.0,-26.0,493.0,-38.0,-13.0,-22.0,-39.0,-41.0,-8.0,1
-8.0,-8.0,-14.0,-8.0,-10.0,-1.0,13.0,10.0,-90.0,-285.0,-22.0,-6.0,-17.0,-13.0,0.0,-18.0,-25.0,-200.0,-14.0,1.0,2.0,-11.0,-11.0,-12.0,1
48.0,43.0,28.0,29.0,41.0,13.0,32.0,45.0,2.0,27.0,29.0,12.0,1.0,7.0,5.0,-10.0,0.0,-74.0,21.0,-5.0,-25.0,-9.0,-25.0,-35.0,1
-31.0,-46.0,-53.0,-54.0,-47.0,-45.0,-48.0,-43.0,71.0,-91.0,-65.0,-45.0,-54.0,-40.0,-37.0,14.0,0.0,-102.0,-27.0,-28.0,-25.0,-41.0,-29.0,-15.0,1
-22.0,-29.0,-7.0,0.0,-12.0,-7.0,32.0,19.0,-14.0,10.0,-10.0,-4.0,12.0,9.0,34.0,-20.0,-32.0,-41.0,4.0,10.0,16.0,11.0,8.0,-11.0,1
-28.0,-25.0,-27.0,-23.0,-29.0,-25.0,-34.0,-30.0,86.0,-105.0,-29.0,-26.0,-23.0,-41.0,-28.0,-36.0,-13.0,665.0,-25.0,-16.0,-21.0,-34.0,-35.0,20.0,1
1.0,-7.0,3.0,7.0,-6.0,-13.0,2.0,19.0,-3.0,184.0,0.0,4.0,0.0,25.0,14.0,1.0,-4.0,96.0,-1.0,0.0,12.0,5.0,-3.0,-5.0,1
-77.0,-72.0,-58.0,-59.0,-62.0,-64.0,-71.0,-72.0,-605.0,-631.0,-64.0,-55.0,-48.0,-45.0,-42.0,-74.0,-40.0,-541.0,-37.0,-39.0,-39.0,-41.0,-52.0,-84.0,1
5.0,-22.0,-39.0,-35.0,-35.0,-38.0,7.0,27.0,-29.0,-186.0,-61.0,-35.0,-33.0,-24.0,-16.0,-25.0,-50.0,-151.0,-64.0,-24.0,-12.0,-33.0,-37.0,-60.0,1
61.0,30.0,8.0,-9.0,5.0,-1.0,25.0,35.0,130.0,212.0,-59.0,-16.0,3.0,14.0,18.0,29.0,19.0,203.0,-16.0,-35.0,-45.0,-13.0,-21.0,-11.0,1
10.0,16.0,24.0,31.0,18.0,20.0,17.0,17.0,-3.0,-10.0,20.0,19.0,29.0,17.0,12.0,1.0,36.0,-86.0,24.0,10.0,2.0,17.0,13.0,33.0,1
5.0,13.0,21.0,29.0,36.0,42.0,44.0,19.0,-21.0,46.0,19.0,26.0,44.0,42.0,39.0,13.0,-1.0,-1.0,6.0,13.0,14.0,41.0,33.0,23.0,1
-4.0,27.0,26.0,6.0,-1.0,11.0,8.0,-4.0,23.0,-20.0,15.0,7.0,0.0,-13.0,-15.0,-13.0,0.0,-367.0,-13.0,-11.0,-9.0,-15.0,-17.0,-37.0,1
6.0,17.0,0.0,-12.0,-24.0,-28.0,-24.0,-17.0,-4.0,54.0,-1.0,-14.0,-38.0,-50.0,-43.0,5.0,3.0,-72.0,1.0,-5.0,-3.0,-12.0,6.0,5.0,1
13.0,14.0,-3.0,-8.0,-3.0,-10.0,-23.0,-25.0,-95.0,-450.0,22.0,-4.0,14.0,13.0,0.0,-15.0,1.0,-229.0,5.0,-6.0,-30.0,4.0,8.0,10.0,1
8.0,14.0,5.0,12.0,17.0,12.0,23.0,12.0,-258.0,-308.0,25.0,11.0,14.0,11.0,8.0,0.0,210.0,-1735.0,36.0,12.0,12.0,19.0,35.0,-59.0,1
-24.0,-20.0,-22.0,-12.0,-16.0,-10.0,-16.0,-25.0,-65.0,-166.0,-58.0,-23.0,-9.0,-17.0,-24.0,-41.0,58.0,2.0,-7.0,-19.0,-29.0,-73.0,-111.0,-174.0,1
-77.0,-38.0,-22.0,-12.0,-14.0,4.0,17.0,-27.0,-44.0,-54.0,-27.0,-19.0,-15.0,-19.0,-23.0,-96.0,4.0,-35.0,-25.0,-22.0,-10.0,-7.0,-15.0,-13.0,1
-14.0,3.0,3.0,7.0,-4.0,4.0,-11.0,-12.0,-162.0,-556.0,16.0,-2.0,2.0,0.0,1.0,-21.0,25.0,241.0,-29.0,1.0,10.0,0.0,-28.0,-31.0,1
-28.0,-12.0,-3.0,3.0,6.0,21.0,17.0,16.0,-45.0,-221.0,-9.0,5.0,-4.0,10.0,12.0,-10.0,-9.0,-25.0,10.0,9.0,14.0,-27.0,-25.0,-79.0,1
10.0,-53.0,-56.0,-47.0,-51.0,-33.0,-34.0,-24.0,273.0,53.0,-61.0,-42.0,-44.0,-72.0,-53.0,43.0,-10.0,393.0,-43.0,-41.0,-53.0,-37.0,-7.0,17.0,1
-3.0,-2.0,-5.0,-9.0,-14.0,-16.0,-9.0,-17.0,-7.0,-8.0,0.0,-1.0,0.0,-8.0,-6.0,0.0,1.0,-14.0,3.0,8.0,7.0,3.0,4.0,7.0,1
-2.0,25.0,32.0,19.0,20.0,19.0,15.0,17.0,2.0,6.0,-18.0,12.0,17.0,29.0,37.0,21.0,16.0,-116.0,-16.0,10.0,9.0,2.0,-5.0,7.0,1
91.0,83.0,62.0,46.0,33.0,60.0,61.0,79.0,208.0,623.0,80.0,59.0,32.0,51.0,65.0,25.0,24.0,833.0,54.0,66.0,75.0,81.0,61.0,85.0,1
27.0,42.0,27.0,20.0,24.0,21.0,-2.0,12.0,24.0,-11.0,32.0,27.0,35.0,33.0,21.0,14.0,50.0,-50.0,42.0,27.0,23.0,44.0,39.0,58.0,1
-8.0,-7.0,-3.0,-3.0,-1.0,-4.0,-14.0,0.0,-5.0,-4.0,-2.0,-3.0,-4.0,14.0,15.0,3.0,0.0,1.0,-1.0,-3.0,-4.0,-2.0,6.0,5.0,1
-82.0,-36.0,-38.0,-39.0,-44.0,-53.0,-48.0,-27.0,-70.0,-235.0,-33.0,-25.0,-59.0,-57.0,-52.0,-56.0,-10.0,-167.0,-9.0,2.0,-3.0,-57.0,-74.0,-152.0,1
10.0,12.0,8.0,8.0,7.0,8.0,9.0,7.0,-274.0,-287.0,37.0,14.0,19.0,21.0,20.0,-4.0,2.0,430.0,5.0,24.0,23.0,27.0,16.0,25.0,1
15.0,25.0,40.0,39.0,37.0,50.0,83.0,76.0,-31.0,-36.0,31.0,32.0,36.0,30.0,41.0,-18.0,-30.0,-60.0,26.0,29.0,29.0,19.0,0.0,-65.0,1
14.0,-10.0,-2.0,-15.0,-24.0,-23.0,-59.0,-30.0,256.0,98.0,-3.0,-7.0,-3.0,6.0,11.0,66.0,28.0,48.0,-10.0,-22.0,-30.0,-25.0,-3.0,17.0,1
-23.0,11.0,10.0,6.0,10.0,2.0,21.0,-4.0,25.0,-151.0,0.0,17.0,-12.0,-13.0,-10.0,-62.0,4.0,14.0,14.0,4.0,5.0,-13.0,-20.0,9.0,1
0.0,2.0,2.0,4.0,-4.0,-6.0,-3.0,-1.0,-351.0,-651.0,-9.0,-2.0,2.0,5.0,2.0,-18.0,24.0,-337.0,12.0,6.0,5.0,-13.0,-12.0,-38.0,1
5.0,20.0,17.0,19.0,12.0,4.0,19.0,10.0,-331.0,-638.0,47.0,16.0,16.0,17.0,2.0,-15.0,-66.0,114.0,1.0,12.0,7.0,1.0,17.0,64.0,1
30.0,5.0,-12.0,-10.0,-5.0,-29.0,-31.0,-40.0,19.0,-160.0,-5.0,-9.0,1.0,5.0,2.0,26.0,52.0,-277.0,14.0,4.0,7.0,10.0,17.0,23.0,1
14.0,5.0,-10.0,-21.0,-24.0,-27.0,-60.0,-38.0,20.0,45.0,-12.0,-23.0,-26.0,-35.0,-31.0,54.0,-2.0,1.0,-20.0,-21.0,-26.0,-27.0,-3.0,21.0,1
4.0,3.0,3.0,4.0,-1.0,-4.0,-1.0,3.0,-111.0,-142.0,11.0,6.0,2.0,-1.0,-1.0,-6.0,-4.0,-99.0,7.0,8.0,6.0,9.0,13.0,-18.0,1
11.0,1.0,-2.0,-4.0,-3.0,-2.0,22.0,15.0,52.0,199.0,6.0,-3.0,8.0,7.0,-14.0,-44.0,16.0,209.0,-7.0,-13.0,-18.0,-9.0,-20.0,-5.0,1
-16.0,-8.0,-12.0,-10.0,-8.0,-15.0,-3.0,-7.0,-5.0,-29.0,-21.0,-18.0,-22.0,-25.0,-17.0,-38.0,-31.0,-11.0,-24.0,-15.0,-21.0,-13.0,-20.0,-27.0,1
-14.0,4.0,17.0,21.0,34.0,41.0,33.0,11.0,21.0,44.0,15.0,17.0,32.0,52.0,51.0,-9.0,15.0,69.0,3.0,3.0,5.0,17.0,20.0,-2.0,1
15.0,16.0,11.0,12.0,13.0,22.0,8.0,9.0,-20.0,-28.0,10.0,16.0,17.0,12.0,18.0,15.0,7.0,1.0,0.0,8.0,11.0,11.0,14.0,9.0,1
15.0,19.0,22.0,25.0,18.0,23.0,36.0,7.0,3.0,11.0,29.0,27.0,25.0,24.0,25.0,25.0,2.0,-16.0,23.0,14.0,23.0,25.0,21.0,-1.0,1
26.0,11.0,0.0,-6.0,-9.0,-9.0,-9.0,10.0,24.0,43.0,-4.0,-5.0,8.0,-7.0,-11.0,42.0,16.0,1.0,-13.0,-12.0,-28.0,-3.0,16.0,28.0,1
36.0,52.0,27.0,17.0,-1.0,4.0,4.0,-6.0,179.0,566.0,31.0,19.0,11.0,-2.0,-4.0,37.0,60.0,814.0,-28.0,12.0,22.0,16.0,17.0,96.0,1
-30.0,-32.0,-16.0,-14.0,-8.0,-8.0,-1.0,-14.0,-413.0,-458.0,-54.0,-14.0,-6.0,17.0,9.0,-20.0,-2.0,-552.0,14.0,-10.0,-9.0,-11.0,-31.0,-65.0,1
-18.0,-18.0,-18.0,-17.0,-16.0,0.0,-14.0,-23.0,10.0,-2.0,-21.0,-15.0,-7.0,0.0,-6.0,23.0,7.0,-5.0,-20.0,-9.0,-6.0,3.0,8.0,21.0,1
-3.0,-2.0,0.0,4.0,6.0,-1.0,-8.0,0.0,-89.0,-57.0,4.0,1.0,10.0,27.0,22.0,12.0,-4.0,-3.0,0.0,-1.0,2.0,17.0,17.0,5.0,1
20.0,29.0,29.0,19.0,10.0,-4.0,-4.0,10.0,-419.0,-364.0,-5.0,15.0,13.0,26.0,26.0,14.0,40.0,-339.0,9.0,11.0,21.0,25.0,9.0,-35.0,1
-64.0,-48.0,-51.0,-50.0,-45.0,-47.0,-63.0,-69.0,-123.0,-320.0,-52.0,-48.0,-39.0,-35.0,-43.0,-59.0,-52.0,-235.0,-37.0,-44.0,-47.0,-34.0,-30.0,-37.0,1
10.0,61.0,24.0,52.0,76.0,69.0,103.0,66.0,-118.0,-86.0,13.0,38.0,90.0,83.0,49.0,-16.0,-3.0,-82.0,15.0,-3.0,-10.0,39.0,35.0,-32.0,1
0.0,4.0,-3.0,-10.0,-16.0,-19.0,-36.0,-38.0,10.0,200.0,-3.0,-8.0,-22.0,-32.0,-40.0,-52.0,-12.0,108.0,-2.0,-5.0,-9.0,-25.0,-17.0,14.0,1
-76.0,-87.0,-63.0,-56.0,-55.0,-78.0,-82.0,-78.0,-105.0,-511.0,-66.0,-55.0,-45.0,-33.0,-51.0,2.0,-62.0,-110.0,-44.0,-33.0,-33.0,-38.0,-72.0,-59.0,1
32.0,31.0,31.0,30.0,33.0,20.0,31.0,28.0,-7.0,21.0,54.0,35.0,34.0,38.0,29.0,21.0,2.0,280.0,9.0,23.0,21.0,27.0,26.0,41.0,1
1.0,6.0,3.0,-5.0,-17.0,-11.0,-11.0,-12.0,-8.0,-9.0,15.0,1.0,-6.0,-9.0,-18.0,-51.0,24.0,17.0,20.0,8.0,3.0,-3.0,-29.0,-11.0,1
18.0,37.0,16.0,9.0,11.0,17.0,14.0,19.0,-22.0,-7.0,22.0,18.0,10.0,17.0,20.0,-15.0,17.0,50.0,15.0,12.0,7.0,8.0,16.0,10.0,1
-103.0,-136.0,-65.0,-37.0,-26.0,-32.0,-10.0,-22.0,181.0,220.0,-90.0,-45.0,-33.0,-41.0,-47.0,-79.0,-25.0,281.0,-86.0,-38.0,-44.0,-35.0,-60.0,-32.0,1
-14.0,-9.0,-18.0,-17.0,-15.0,-15.0,-1.0,-8.0,-68.0,-492.0,-16.0,-11.0,-17.0,-16.0,4.0,13.0,-16.0,-108.0,-11.0,-16.0,0.0,1.0,14.0,11.0,1
17.0,-23.0,-45.0,-59.0,-74.0,-99.0,-156.0,-82.0,283.0,-289.0,-32.0,-45.0,-61.0,-96.0,-116.0,5.0,127.0,-263.0,7.0,-35.0,-47.0,-52.0,-53.0,110.0,1
121.0,114.0,100.0,94.0,86.0,84.0,109.0,100.0,62.0,118.0,96.0,83.0,91.0,93.0,109.0,102.0,24.0,-49.0,93.0,74.0,72.0,65.0,45.0,8.0,1
-3.0,-10.0,-9.0,-6.0,-3.0,-5.0,0.0,0.0,-3.0,1.0,-11.0,-15.0,3.0,2.0,3.0,5.0,1.0,-6.0,-1.0,-12.0,-12.0,-3.0,1.0,5.0,1
72.0,104.0,82.0,70.0,61.0,40.0,41.0,56.0,83.0,111.0,84.0,68.0,61.0,47.0,39.0,54.0,46.0,37.0,76.0,49.0,44.0,37.0,32.0,40.0,1
34.0,47.0,39.0,41.0,42.0,39.0,34.0,34.0,20.0,-252.0,38.0,41.0,38.0,31.0,32.0,13.0,23.0,-40.0,37.0,24.0,23.0,12.0,-1.0,-37.0,1
-10.0,-9.0,-19.0,-12.0,-13.0,-15.0,-11.0,-9.0,-23.0,134.0,-12.0,-19.0,-14.0,-16.0,-13.0,-5.0,-41.0,199.0,-14.0,-14.0,-14.0,-19.0,-21.0,-27.0,1
26.0,30.0,8.0,9.0,10.0,12.0,-5.0,14.0,44.0,5.0,10.0,11.0,20.0,17.0,9.0,16.0,10.0,26.0,22.0,5.0,5.0,-3.0,11.0,29.0,1
-2.0,5.0,4.0,3.0,-4.0,-6.0,-3.0,9.0,-72.0,-316.0,4.0,6.0,-6.0,-3.0,-2.0,-10.0,3.0,-209.0,21.0,9.0,11.0,8.0,5.0,-6.0,1
-16.0,-4.0,-1.0,-2.0,-6.0,-21.0,0.0,1.0,-230.0,62.0,18.0,1.0,-3.0,-31.0,-26.0,-93.0,-31.0,-56.0,2.0,1.0,-1.0,-16.0,-34.0,-47.0,1
29.0,31.0,37.0,40.0,39.0,48.0,63.0,21.0,34.0,24.0,37.0,39.0,48.0,54.0,62.0,63.0,38.0,-55.0,22.0,34.0,42.0,41.0,34.0,-4.0,1
9.0,10.0,16.0,0.0,-1.0,-1.0,-1.0,-4.0,-554.0,-1004.0,8.0,2.0,3.0,0.0,-3.0,-23.0,-1.0,-648.0,-15.0,-2.0,-1.0,2.0,-5.0,-17.0,1
20.0,31.0,37.0,42.0,56.0,56.0,56.0,86.0,-31.0,-75.0,25.0,35.0,37.0,49.0,37.0,17.0,-7.0,75.0,20.0,12.0,-12.0,12.0,10.0,-14.0,1
8.0,4.0,2.0,-12.0,-18.0,-33.0,-49.0,-30.0,-170.0,-243.0,5.0,-7.0,-19.0,-23.0,0.0,34.0,-12.0,-74.0,11.0,-2.0,-19.0,-30.0,-29.0,-50.0,1
27.0,-3.0,9.0,8.0,2.0,11.0,-15.0,10.0,152.0,262.0,5.0,8.0,12.0,15.0,6.0,66.0,74.0,312.0,8.0,13.0,19.0,23.0,55.0,104.0,1
-58.0,-52.0,-52.0,-54.0,-49.0,-51.0,-61.0,-58.0,-55.0,-57.0,-53.0,-45.0,-42.0,-45.0,-45.0,-45.0,-49.0,-57.0,-45.0,-50.0,-53.0,-42.0,-42.0,-44.0,1
-31.0,-33.0,-46.0,-36.0,-36.0,-40.0,-40.0,-41.0,-439.0,-674.0,-56.0,-33.0,-27.0,-16.0,-33.0,-45.0,-26.0,-344.0,8.0,-17.0,-15.0,-11.0,-34.0,-81.0,1
-4.0,-9.0,-10.0,-12.0,-2.0,-5.0,-20.0,-12.0,-35.0,-57.0,-7.0,-8.0,-4.0,-11.0,-18.0,-16.0,-4.0,-47.0,-4.0,-6.0,-4.0,-2.0,-3.0,-4.0,1
-1.0,1.0,-4.0,-3.0,-10.0,-5.0,8.0,15.0,-32.0,53.0,-8.0,-2.0,4.0,11.0,15.0,12.0,-35.0,-66.0,-18.0,6.0,15.0,11.0,1.0,-34.0,1
-8.0,-29.0,-37.0,-42.0,-39.0,-37.0,-78.0,-77.0,2.0,112.0,-32.0,-33.0,1.0,4.0,-20.0,61.0,-19.0,136.0,-35.0,-53.0,-57.0,-22.0,-11.0,27.0,1
-14.0,-21.0,-25.0,-24.0,-22.0,-30.0,-28.0,-21.0,-14.0,8.0,-23.0,-24.0,-20.0,-15.0,-21.0,-11.0,23.0,54.0,-10.0,-14.0,-17.0,-12.0,-7.0,2.0,1
25.0,28.0,4.0,-11.0,-35.0,-43.0,-53.0,-69.0,-47.0,-1.0,2.0,-8.0,1.0,1.0,-21.0,-95.0,3.0,-105.0,4.0,23.0,8.0,12.0,-27.0,-18.0,1
37.0,57.0,63.0,64.0,68.0,65.0,96.0,59.0,-102.0,112.0,70.0,53.0,48.0,48.0,58.0,5.0,23.0,87.0,25.0,43.0,50.0,44.0,44.0,64.0,1
25.0,19.0,2.0,-3.0,-9.0,8.0,54.0,77.0,378.0,-171.0,-22.0,3.0,-26.0,-18.0,0.0,-53.0,4.0,1.0,22.0,27.0,48.0,12.0,-1.0,-23.0,1
-20.0,-49.0,-30.0,-26.0,-26.0,-6.0,-8.0,1.0,-71.0,-66.0,-37.0,-28.0,-28.0,-19.0,0.0,19.0,-4.0,-92.0,-27.0,-19.0,-4.0,-16.0,-13.0,-24.0,1
17.0,14.0,12.0,9.0,16.0,16.0,11.0,16.0,23.0,-26.0,14.0,17.0,21.0,21.0,23.0,25.0,4.0,29.0,17.0,10.0,13.0,23.0,17.0,5.0,1
-44.0,-20.0,-21.0,-24.0,-17.0,-4.0,-9.0,7.0,-12.0,-18.0,-24.0,-18.0,-24.0,-13.0,-12.0,-19.0,17.0,9.0,-18.0,-6.0,-5.0,-19.0,-9.0,-6.0,1
19.0,39.0,53.0,45.0,54.0,51.0,54.0,55.0,181.0,678.0,66.0,38.0,31.0,29.0,24.0,109.0,97.0,868.0,19.0,37.0,29.0,61.0,62.0,146.0,1
31.0,25.0,24.0,21.0,21.0,30.0,27.0,26.0,130.0,138.0,36.0,27.0,24.0,22.0,25.0,18.0,23.0,413.0,8.0,20.0,18.0,22.0,34.0,54.0,1
-11.0,-24.0,-24.0,-30.0,-31.0,-39.0,-32.0,-16.0,-5.0,-4.0,-22.0,-23.0,-43.0,-47.0,-25.0,6.0,-6.0,-11.0,-13.0,-14.0,-8.0,-29.0,-20.0,-6.0,1
6.0,-17.0,-4.0,-2.0,-14.0,-2.0,-7.0,-37.0,8.0,32.0,0.0,1.0,6.0,2.0,-14.0,-67.0,46.0,38.0,-26.0,-2.0,1.0,-8.0,-33.0,7.0,1
-2.0,7.0,13.0,0.0,-14.0,-18.0,-23.0,-6.0,30.0,54.0,14.0,12.0,8.0,-11.0,-2.0,35.0,8.0,54.0,18.0,9.0,9.0,5.0,14.0,20.0,1
-43.0,-37.0,-38.0,-50.0,-53.0,-64.0,-89.0,-73.0,-38.0,-183.0,-35.0,-39.0,-59.0,-45.0,-77.0,-101.0,-17.0,-158.0,-21.0,-22.0,-17.0,-54.0,-99.0,-43.0,1
-12.0,-6.0,-10.0,-8.0,-15.0,-8.0,-7.0,-12.0,-682.0,6.0,39.0,-17.0,-7.0,-9.0,-14.0,-29.0,-49.0,-4.0,-40.0,-10.0,-10.0,-12.0,-11.0,4.0,1
56.0,35.0,37.0,9.0,-11.0,9.0,-6.0,57.0,268.0,508.0,41.0,21.0,5.0,-10.0,-2.0,57.0,108.0,533.0,47.0,43.0,43.0,34.0,19.0,68.0,1
-2.0,13.0,11.0,19.0,18.0,24.0,53.0,46.0,243.0,-165.0,-24.0,11.0,18.0,33.0,14.0,-74.0,-23.0,-82.0,7.0,9.0,18.0,10.0,1.0,-35.0,1
-6.0,-2.0,-3.0,0.0,10.0,22.0,9.0,-8.0,-457.0,-531.0,42.0,-1.0,-5.0,-22.0,-29.0,-32.0,-46.0,413.0,-26.0,-11.0,-24.0,-38.0,-26.0,-2.0,1
-30.0,-33.0,-33.0,-36.0,-40.0,-23.0,-53.0,-18.0,-88.0,-42.0,-28.0,-24.0,-26.0,-31.0,-33.0,-45.0,-18.0,25.0,-38.0,-7.0,1.0,-27.0,-31.0,-16.0,1
-9.0,-10.0,-19.0,-25.0,-23.0,-14.0,-9.0,-7.0,-7.0,-4.0,-16.0,-14.0,-14.0,-18.0,-13.0,-8.0,-16.0,-21.0,-22.0,-12.0,-12.0,-15.0,-13.0,-14.0,1
-18.0,-16.0,-34.0,-34.0,-29.0,-23.0,-15.0,-31.0,277.0,-386.0,-36.0,-32.0,-36.0,-27.0,-35.0,-71.0,29.0,-306.0,2.0,-20.0,-17.0,-27.0,-24.0,-26.0,1
16.0,22.0,17.0,21.0,19.0,15.0,24.0,24.0,-31.0,0.0,26.0,11.0,15.0,16.0,13.0,-3.0,50.0,-104.0,8.0,15.0,19.0,21.0,22.0,23.0,1
39.0,30.0,27.0,22.0,10.0,19.0,16.0,30.0,29.0,6.0,31.0,27.0,17.0,21.0,22.0,29.0,46.0,-2.0,33.0,40.0,41.0,25.0,37.0,52.0,1
9.0,-18.0,-31.0,-36.0,-47.0,-45.0,-55.0,-33.0,-149.0,-160.0,-29.0,-28.0,-26.0,-29.0,-70.0,-88.0,27.0,-353.0,21.0,3.0,-1.0,-18.0,-47.0,-38.0,1
-62.0,-76.0,-35.0,-22.0,-13.0,-16.0,-17.0,-33.0,-43.0,-250.0,-59.0,-32.0,-8.0,-37.0,-27.0,-39.0,-32.0,-140.0,-32.0,-27.0,-47.0,-31.0,-32.0,-36.0,1
8.0,17.0,31.0,37.0,47.0,29.0,53.0,23.0,4.0,62.0,29.0,29.0,45.0,49.0,34.0,41.0,-3.0,-11.0,17.0,13.0,7.0,33.0,31.0,-5.0,1
-29.0,-15.0,6.0,17.0,26.0,8.0,1.0,-38.0,-22.0,31.0,5.0,12.0,27.0,30.0,12.0,3.0,-5.0,-20.0,1.0,0.0,-8.0,11.0,-4.0,-43.0,1
-29.0,0.0,6.0,-2.0,-3.0,-15.0,-2.0,-11.0,-223.0,-275.0,-9.0,-10.0,-9.0,-14.0,-13.0,-20.0,180.0,-1827.0,20.0,-6.0,-14.0,-7.0,21.0,-63.0,1
-8.0,-17.0,-10.0,-7.0,-6.0,2.0,28.0,27.0,-29.0,18.0,-19.0,-9.0,-23.0,8.0,21.0,-6.0,-19.0,-117.0,-18.0,11.0,29.0,2.0,2.0,-28.0,1
50.0,22.0,13.0,6.0,8.0,-5.0,16.0,40.0,101.0,133.0,21.0,11.0,14.0,29.0,21.0,35.0,-15.0,-99.0,2.0,-5.0,1.0,25.0,66.0,92.0,1
16.0,7.0,8.0,9.0,12.0,13.0,10.0,12.0,32.0,93.0,20.0,16.0,20.0,25.0,21.0,21.0,29.0,-86.0,23.0,20.0,18.0,16.0,15.0,20.0,1
-39.0,-33.0,-53.0,-28.0,-24.0,-33.0,-29.0,-29.0,-1262.0,-105.0,1.0,-22.0,-19.0,-23.0,-17.0,-41.0,-80.0,-570.0,1.0,-12.0,-18.0,-19.0,-23.0,-34.0,1
-9.0,-14.0,2.0,8.0,2.0,24.0,41.0,34.0,-136.0,-229.0,-6.0,10.0,17.0,19.0,25.0,-40.0,-47.0,-163.0,-2.0,6.0,10.0,-1.0,-30.0,-90.0,1
-66.0,-17.0,-8.0,-3.0,5.0,26.0,51.0,34.0,-107.0,6.0,-7.0,3.0,14.0,-14.0,-13.0,-86.0,-38.0,-41.0,5.0,0.0,6.0,8.0,-14.0,-32.0,1
25.0,27.0,23.0,18.0,15.0,7.0,14.0,5.0,9.0,-27.0,29.0,26.0,22.0,14.0,19.0,2.0,4.0,-17.0,22.0,15.0,10.0,9.0,3.0,3.0,1
-34.0,-37.0,-38.0,-33.0,-28.0,-27.0,-21.0,-28.0,-96.0,-95.0,-33.0,-21.0,-25.0,-37.0,-36.0,-35.0,-5.0,-736.0,25.0,-13.0,-21.0,-33.0,-29.0,-54.0,1
-26.0,-23.0,-22.0,-18.0,-21.0,-21.0,-16.0,-18.0,-121.0,-88.0,-28.0,-20.0,-23.0,-28.0,-27.0,-26.0,-16.0,-600.0,-1.0,-14.0,-19.0,-28.0,-25.0,-36.0,1
5.0,24.0,13.0,8.0,10.0,9.0,0.0,-37.0,32.0,-144.0,-7.0,-10.0,11.0,1.0,-5.0,3.0,-5.0,14.0,-6.0,-20.0,-27.0,-4.0,-21.0,-7.0,1
-32.0,-24.0,-33.0,-28.0,-27.0,-26.0,-25.0,-29.0,-29.0,-36.0,-24.0,-22.0,-25.0,-27.0,-26.0,-27.0,-8.0,-28.0,-18.0,-21.0,-22.0,-22.0,-19.0,-18.0,1
-56.0,-35.0,-32.0,-31.0,-37.0,-37.0,-34.0,-36.0,-277.0,-824.0,-23.0,-40.0,-33.0,-38.0,-43.0,-51.0,-5.0,233.0,-44.0,-27.0,-33.0,-42.0,-39.0,-25.0,1
2.0,0.0,4.0,10.0,16.0,6.0,18.0,9.0,-15.0,-51.0,0.0,8.0,11.0,5.0,16.0,20.0,2.0,-158.0,-1.0,6.0,12.0,13.0,7.0,0.0,1
35.0,34.0,31.0,31.0,31.0,27.0,27.0,27.0,-231.0,-197.0,55.0,31.0,38.0,53.0,39.0,13.0,13.0,444.0,9.0,31.0,28.0,36.0,31.0,37.0,1
23.0,-4.0,-5.0,0.0,-7.0,9.0,24.0,31.0,4.0,609.0,31.0,-6.0,-9.0,-27.0,10.0,60.0,-31.0,434.0,-28.0,-4.0,1.0,-1.0,-1.0,-33.0,1
2.0,-25.0,-16.0,-17.0,-33.0,-23.0,-27.0,-31.0,32.0,-102.0,-19.0,-16.0,-19.0,-10.0,0.0,40.0,49.0,14.0,-9.0,-10.0,-1.0,-22.0,-49.0,-127.0,1
-15.0,-31.0,-49.0,-61.0,-69.0,-87.0,-121.0,-86.0,-9.0,44.0,-39.0,-54.0,-67.0,-57.0,-65.0,0.0,-6.0,-64.0,-32.0,-40.0,-44.0,-48.0,-24.0,21.0,1
-72.0,-93.0,-59.0,-50.0,-44.0,-46.0,-47.0,-107.0,-154.0,-264.0,-62.0,-52.0,-43.0,-27.0,-35.0,-60.0,-50.0,-124.0,-66.0,-31.0,-27.0,-32.0,-41.0,-65.0,1
-69.0,-168.0,-89.0,-61.0,-56.0,-45.0,-50.0,-65.0,-49.0,7.0,-65.0,-48.0,-45.0,-8.0,-13.0,-21.0,13.0,84.0,-3.0,-25.0,-22.0,-15.0,-10.0,-11.0,1
118.0,124.0,89.0,83.0,70.0,90.0,108.0,151.0,239.0,287.0,95.0,84.0,71.0,64.0,79.0,51.0,-45.0,289.0,61.0,68.0,70.0,58.0,37.0,-19.0,1
8.0,13.0,18.0,19.0,20.0,21.0,29.0,8.0,-69.0,-35.0,8.0,8.0,15.0,19.0,25.0,90.0,17.0,-80.0,-26.0,-11.0,-13.0,-3.0,-9.0,3.0,1
-69.0,-65.0,-59.0,-54.0,-56.0,-68.0,-106.0,-103.0,-93.0,-161.0,-58.0,-37.0,-27.0,-29.0,-71.0,-67.0,-4.0,-31.0,-39.0,-30.0,-33.0,-33.0,-69.0,-51.0,1
10.0,-13.0,-5.0,7.0,18.0,35.0,65.0,57.0,14.0,-150.0,-14.0,4.0,5.0,16.0,47.0,11.0,-43.0,17.0,0.0,6.0,6.0,5.0,22.0,3.0,1
-32.0,-22.0,-29.0,-25.0,-24.0,-32.0,-22.0,-27.0,-164.0,-200.0,-10.0,-28.0,-30.0,-29.0,-24.0,-34.0,134.0,-1692.0,2.0,-27.0,-32.0,-26.0,-11.0,-52.0,1
-3.0,10.0,13.0,17.0,12.0,6.0,43.0,71.0,-190.0,-190.0,11.0,11.0,14.0,5.0,15.0,31.0,-12.0,-184.0,21.0,7.0,-11.0,3.0,-7.0,-72.0,1
7.0,-33.0,-39.0,-32.0,-28.0,-36.0,-40.0,-40.0,27.0,34.0,-27.0,-24.0,-23.0,-24.0,-22.0,-4.0,-21.0,113.0,-23.0,-21.0,-24.0,-36.0,-43.0,-69.0,1
5.0,32.0,40.0,46.0,50.0,52.0,82.0,57.0,25.0,21.0,36.0,43.0,36.0,34.0,52.0,-5.0,-42.0,-10.0,28.0,27.0,31.0,36.0,2.0,-59.0,1
-8.0,-5.0,3.0,12.0,21.0,17.0,18.0,4.0,-10.0,-82.0,-3.0,12.0,14.0,33.0,31.0,17.0,-16.0,47.0,-13.0,5.0,19.0,19.0,18.0,2.0,1
27.0,10.0,12.0,12.0,3.0,5.0,20.0,46.0,18.0,-49.0,18.0,7.0,4.0,11.0,17.0,37.0,19.0,34.0,9.0,16.0,15.0,7.0,8.0,21.0,1
26.0,34.0,-8.0,-12.0,-27.0,-20.0,-39.0,-23.0,68.0,87.0,-4.0,-1.0,-15.0,-30.0,-43.0,-15.0,36.0,-13.0,15.0,19.0,14.0,-9.0,-1.0,31.0,1
-51.0,-49.0,-61.0,-53.0,-42.0,-73.0,-70.0,-70.0,-52.0,43.0,-78.0,-54.0,-34.0,-57.0,-67.0,-39.0,-32.0,128.0,-31.0,-29.0,-48.0,-36.0,-50.0,-45.0,1
19.0,27.0,33.0,42.0,52.0,59.0,83.0,72.0,25.0,24.0,24.0,31.0,51.0,47.0,49.0,-2.0,33.0,10.0,8.0,10.0,19.0,34.0,27.0,-8.0,1
-33.0,-36.0,-38.0,-48.0,-51.0,-45.0,-38.0,-22.0,-52.0,-67.0,-26.0,-34.0,-46.0,-56.0,-39.0,-19.0,-20.0,-64.0,-22.0,-20.0,-20.0,-24.0,-26.0,-37.0,1
-59.0,-59.0,-23.0,-18.0,-27.0,5.0,2.0,1.0,42.0,33.0,-16.0,-12.0,-52.0,-32.0,-24.0,-41.0,-40.0,-16.0,-18.0,-1.0,0.0,-17.0,26.0,27.0,1
-30.0,-38.0,-31.0,-36.0,-39.0,-56.0,-42.0,-26.0,-46.0,-109.0,-26.0,-21.0,-24.0,-32.0,-39.0,-30.0,-5.0,-89.0,-19.0,-17.0,-19.0,-32.0,-35.0,-16.0,1
-20.0,-20.0,3.0,17.0,33.0,34.0,71.0,31.0,-38.0,-79.0,-6.0,9.0,17.0,36.0,63.0,-17.0,-59.0,-36.0,-21.0,27.0,31.0,25.0,13.0,-11.0,1
-3.0,16.0,0.0,-7.0,-16.0,-12.0,-10.0,-15.0,-12.0,-6.0,3.0,-15.0,-28.0,-23.0,-33.0,-14.0,-3.0,7.0,0.0,-2.0,-25.0,-18.0,-13.0,-29.0,1
-30.0,-38.0,-27.0,-24.0,-21.0,-27.0,7.0,-3.0,-56.0,-123.0,-36.0,-26.0,-33.0,-44.0,-33.0,-37.0,-35.0,-150.0,-28.0,-12.0,-7.0,-12.0,-15.0,-52.0,1
-66.0,-52.0,-45.0,-43.0,-45.0,-52.0,-53.0,-57.0,-56.0,-66.0,-43.0,-46.0,-42.0,-46.0,-43.0,-46.0,-33.0,-35.0,-49.0,-41.0,-38.0,-33.0,-22.0,-22.0,1
-23.0,-40.0,-43.0,-48.0,-61.0,-64.0,-53.0,-47.0,-45.0,-132.0,-45.0,-42.0,-50.0,-52.0,-54.0,-30.0,-10.0,-61.0,-26.0,-18.0,-18.0,-45.0,-49.0,-37.0,1
-5.0,24.0,22.0,12.0,-8.0,15.0,25.0,8.0,-123.0,-48.0,15.0,10.0,-17.0,-15.0,15.0,9.0,-25.0,-124.0,-13.0,26.0,38.0,4.0,12.0,-21.0,1
16.0,3.0,9.0,14.0,11.0,9.0,12.0,14.0,105.0,54.0,9.0,14.0,24.0,22.0,15.0,29.0,62.0,166.0,15.0,9.0,19.0,17.0,11.0,-21.0,1
26.0,23.0,20.0,21.0,17.0,16.0,10.0,22.0,33.0,44.0,22.0,20.0,18.0,14.0,23.0,42.0,30.0,45.0,23.0,21.0,25.0,20.0,25.0,31.0,1
-11.0,-65.0,-25.0,-15.0,-14.0,0.0,-23.0,-9.0,-70.0,-43.0,-19.0,-7.0,-15.0,-22.0,3.0,-17.0,-17.0,-78.0,-34.0,-7.0,10.0,-7.0,9.0,8.0,1
1.0,11.0,2.0,4.0,3.0,-3.0,2.0,0.0,-284.0,-306.0,28.0,4.0,2.0,-6.0,1.0,-9.0,-17.0,330.0,-18.0,0.0,-6.0,-11.0,-20.0,1.0,1
12.0,17.0,30.0,29.0,29.0,46.0,29.0,5.0,128.0,503.0,42.0,35.0,31.0,28.0,27.0,66.0,30.0,876.0,15.0,43.0,37.0,44.0,78.0,100.0,1
-10.0,-58.0,-33.0,-33.0,-54.0,-52.0,-84.0,-64.0,-38.0,-227.0,-41.0,-25.0,-56.0,-92.0,-45.0,47.0,45.0,-73.0,-28.0,-5.0,-4.0,-49.0,-54.0,-64.0,1
-16.0,-16.0,-14.0,-10.0,-16.0,-9.0,6.0,-10.0,-47.0,6.0,-8.0,-3.0,-2.0,11.0,14.0,-27.0,-9.0,23.0,-11.0,-7.0,5.0,6.0,0.0,8.0,1
-93.0,-58.0,-48.0,-37.0,-29.0,-37.0,-72.0,-70.0,-117.0,-360.0,-53.0,-45.0,-36.0,-18.0,-34.0,-51.0,-40.0,-141.0,-34.0,-56.0,-73.0,-52.0,-41.0,-57.0,1
33.0,33.0,22.0,12.0,20.0,17.0,19.0,20.0,39.0,70.0,22.0,22.0,19.0,1.0,-1.0,20.0,10.0,-29.0,22.0,13.0,6.0,-5.0,8.0,12.0,1
