0,1,2,3,4,5,6,7,8,9,10,11,12,13,14,15,16,17,18,19,20,21,22,23,24
-70.0,-73.0,-69.0,-54.0,-44.0,-4.0,26.0,-68.0,-22.0,-50.0,-49.0,-37.0,-8.0,78.0,238.0,105.0,-24.0,-235.0,-68.0,-25.0,-1.0,27.0,73.0,-59.0,3
-66.0,-55.0,-48.0,-53.0,-65.0,-132.0,-325.0,-225.0,-107.0,-71.0,-68.0,-71.0,-90.0,-176.0,-241.0,-197.0,-85.0,-107.0,-99.0,-85.0,-89.0,-98.0,-126.0,-139.0,3
-14.0,-10.0,5.0,2.0,-4.0,14.0,23.0,7.0,39.0,2.0,-10.0,-12.0,4.0,19.0,32.0,21.0,64.0,-35.0,-2.0,7.0,14.0,27.0,55.0,36.0,3
-9.0,-7.0,-10.0,-6.0,-7.0,-8.0,-11.0,-18.0,-50.0,-8.0,-7.0,-8.0,-5.0,-5.0,-8.0,-8.0,-210.0,-187.0,-45.0,-5.0,-4.0,-5.0,-29.0,-153.0,3
-29.0,-14.0,-11.0,-12.0,-20.0,-69.0,-97.0,-151.0,-13.0,-17.0,-15.0,-14.0,-22.0,-39.0,-2.0,-54.0,15.0,-12.0,-24.0,-21.0,-19.0,-15.0,96.0,69.0,3
-21.0,-22.0,-23.0,-23.0,-25.0,-26.0,-44.0,-51.0,-19.0,-20.0,-23.0,-26.0,-25.0,-27.0,-43.0,-28.0,-27.0,-51.0,-33.0,-26.0,-28.0,-23.0,-25.0,-43.0,3
-18.0,-18.0,-17.0,-18.0,-20.0,-15.0,-12.0,-8.0,-12.0,-16.0,-14.0,-15.0,-13.0,-15.0,-16.0,-17.0,-1.0,-24.0,-7.0,-9.0,-6.0,10.0,11.0,-12.0,3
135.0,150.0,152.0,157.0,163.0,167.0,198.0,190.0,54.0,157.0,152.0,160.0,167.0,192.0,200.0,193.0,-13.0,64.0,171.0,181.0,164.0,138.0,187.0,116.0,3
13.0,12.0,11.0,11.0,14.0,19.0,13.0,3.0,20.0,14.0,12.0,13.0,16.0,29.0,32.0,17.0,55.0,-11.0,-4.0,8.0,13.0,21.0,38.0,12.0,3
-20.0,-30.0,-28.0,-29.0,-31.0,-25.0,-15.0,-6.0,-20.0,-29.0,-28.0,-27.0,-28.0,-22.0,-15.0,-18.0,5.0,-35.0,-23.0,-22.0,-23.0,-27.0,-37.0,-27.0,3
81.0,70.0,74.0,74.0,71.0,81.0,64.0,67.0,80.0,66.0,70.0,68.0,68.0,71.0,72.0,73.0,142.0,8.0,27.0,51.0,64.0,63.0,34.0,51.0,3
25.0,29.0,33.0,28.0,32.0,14.0,-31.0,-32.0,12.0,19.0,24.0,24.0,17.0,13.0,35.0,44.0,21.0,38.0,14.0,18.0,9.0,-25.0,-33.0,5.0,3
-3.0,9.0,10.0,20.0,25.0,33.0,22.0,35.0,-83.0,9.0,12.0,19.0,21.0,28.0,58.0,54.0,-110.0,-141.0,2.0,35.0,23.0,-5.0,6.0,-65.0,3
-5.0,-3.0,-6.0,-11.0,-16.0,-32.0,-39.0,-84.0,9.0,0.0,-4.0,-8.0,-12.0,-26.0,7.0,54.0,21.0,-3.0,-3.0,-7.0,-8.0,-13.0,4.0,8.0,3
-61.0,-56.0,-62.0,-62.0,-65.0,-71.0,16.0,55.0,-132.0,-47.0,-51.0,-52.0,-53.0,-37.0,-2.0,10.0,-206.0,-44.0,-30.0,-7.0,-14.0,-23.0,-127.0,-132.0,3
-46.0,-16.0,-16.0,-16.0,-19.0,-14.0,10.0,66.0,-102.0,-16.0,-16.0,-19.0,-19.0,-11.0,-11.0,-12.0,24.0,229.0,220.0,58.0,16.0,-18.0,-97.0,-39.0,3
-19.0,-12.0,-10.0,-12.0,-14.0,-16.0,-4.0,-14.0,-12.0,-7.0,-6.0,-5.0,-7.0,5.0,31.0,4.0,1.0,16.0,11.0,1.0,10.0,32.0,49.0,27.0,3
5.0,15.0,16.0,16.0,14.0,2.0,-47.0,-122.0,0.0,17.0,17.0,17.0,16.0,10.0,5.0,-2.0,-24.0,-19.0,7.0,9.0,8.0,9.0,9.0,0.0,3
32.0,53.0,52.0,50.0,47.0,46.0,58.0,68.0,93.0,51.0,48.0,50.0,50.0,68.0,55.0,51.0,195.0,330.0,190.0,86.0,68.0,57.0,108.0,249.0,3
8.0,8.0,13.0,13.0,4.0,17.0,31.0,14.0,12.0,8.0,7.0,2.0,6.0,23.0,61.0,60.0,11.0,-23.0,-8.0,4.0,5.0,-1.0,-18.0,-19.0,3
6.0,40.0,41.0,40.0,38.0,46.0,47.0,64.0,-7.0,38.0,39.0,36.0,39.0,68.0,49.0,41.0,167.0,365.0,208.0,92.0,69.0,48.0,59.0,174.0,3
8.0,2.0,-1.0,4.0,6.0,13.0,37.0,37.0,25.0,12.0,8.0,9.0,8.0,11.0,-25.0,61.0,-24.0,-178.0,-23.0,6.0,11.0,17.0,5.0,-142.0,3
-14.0,0.0,4.0,0.0,-3.0,-19.0,-3.0,-39.0,-7.0,-3.0,-2.0,-3.0,1.0,-8.0,43.0,12.0,7.0,-8.0,-5.0,-9.0,-1.0,3.0,38.0,39.0,3
51.0,43.0,40.0,34.0,34.0,28.0,58.0,47.0,38.0,36.0,32.0,29.0,25.0,21.0,10.0,14.0,42.0,23.0,22.0,17.0,12.0,5.0,33.0,27.0,3
-22.0,-10.0,-8.0,-3.0,1.0,14.0,23.0,-38.0,-40.0,-19.0,-12.0,-8.0,-2.0,11.0,25.0,-27.0,-109.0,-8.0,-1.0,-3.0,-1.0,0.0,54.0,10.0,3
-28.0,-21.0,-21.0,-24.0,-27.0,-47.0,-97.0,-96.0,-36.0,-25.0,-23.0,-25.0,-26.0,-41.0,-59.0,-69.0,-58.0,-28.0,-20.0,-24.0,-24.0,-29.0,-36.0,-26.0,3
60.0,61.0,66.0,68.0,66.0,29.0,15.0,-2.0,-2.0,47.0,51.0,49.0,36.0,-19.0,-117.0,-102.0,-28.0,47.0,11.0,25.0,14.0,2.0,-49.0,-45.0,3
3.0,-4.0,-10.0,-9.0,-10.0,-2.0,24.0,28.0,-4.0,-1.0,-4.0,-4.0,-5.0,0.0,14.0,25.0,-54.0,-57.0,-15.0,-1.0,-4.0,-9.0,-27.0,-55.0,3
-6.0,-23.0,-27.0,-20.0,-13.0,-2.0,6.0,-41.0,-31.0,-23.0,-27.0,-23.0,-13.0,15.0,-7.0,-15.0,-43.0,-145.0,-58.0,-34.0,-31.0,-22.0,-22.0,-91.0,3
-17.0,-20.0,-20.0,-14.0,-14.0,-2.0,35.0,6.0,-17.0,-17.0,-16.0,-12.0,-3.0,13.0,15.0,1.0,-40.0,-89.0,-10.0,-3.0,4.0,23.0,-1.0,-36.0,3
-40.0,-32.0,-28.0,-31.0,-43.0,-103.0,-162.0,-103.0,-136.0,-39.0,-35.0,-41.0,-55.0,-103.0,-137.0,-85.0,-201.0,-306.0,-85.0,-35.0,-43.0,-61.0,-129.0,-235.0,3
7.0,2.0,0.0,1.0,7.0,39.0,115.0,62.0,23.0,12.0,10.0,13.0,30.0,72.0,91.0,43.0,46.0,51.0,23.0,20.0,34.0,59.0,99.0,65.0,3
1.0,-60.0,-61.0,-45.0,-54.0,-69.0,-75.0,-98.0,-47.0,-48.0,-41.0,-47.0,-55.0,-64.0,-66.0,-64.0,-186.0,-702.0,-307.0,-137.0,-103.0,-79.0,-109.0,-312.0,3
8.0,-4.0,-6.0,-6.0,-6.0,-6.0,2.0,17.0,3.0,-4.0,-7.0,-7.0,-1.0,5.0,-5.0,-10.0,42.0,-63.0,-32.0,-15.0,-10.0,-1.0,-2.0,-29.0,3
-12.0,-21.0,-23.0,-18.0,-21.0,-14.0,24.0,70.0,-34.0,-30.0,-25.0,-21.0,-20.0,-29.0,-14.0,-20.0,272.0,371.0,175.0,24.0,-4.0,-18.0,-124.0,-38.0,3
-9.0,1.0,3.0,-4.0,-8.0,-19.0,-40.0,-45.0,-21.0,-10.0,-7.0,-7.0,-16.0,-50.0,-63.0,-24.0,-70.0,32.0,12.0,-3.0,-14.0,-35.0,-66.0,-12.0,3
16.0,20.0,21.0,26.0,24.0,0.0,-7.0,19.0,15.0,25.0,25.0,28.0,29.0,36.0,90.0,80.0,-49.0,-57.0,39.0,33.0,31.0,28.0,-21.0,-43.0,3
-12.0,2.0,-7.0,-8.0,-3.0,6.0,63.0,55.0,-115.0,9.0,4.0,1.0,7.0,13.0,21.0,25.0,-169.0,-33.0,54.0,49.0,36.0,28.0,-27.0,-51.0,3
12.0,21.0,26.0,28.0,31.0,8.0,-43.0,-31.0,-4.0,8.0,17.0,23.0,18.0,17.0,-1.0,-35.0,23.0,37.0,11.0,14.0,8.0,-24.0,11.0,19.0,3
-76.0,-85.0,-89.0,-95.0,-98.0,-105.0,-100.0,-80.0,-69.0,-84.0,-88.0,-95.0,-107.0,-141.0,-154.0,-81.0,-58.0,-99.0,-86.0,-88.0,-99.0,-115.0,-71.0,-82.0,3
12.0,-11.0,-11.0,-6.0,-10.0,-8.0,-11.0,-17.0,6.0,-8.0,-14.0,-10.0,-7.0,-30.0,-9.0,-7.0,160.0,-148.0,-39.0,-28.0,-24.0,-11.0,35.0,60.0,3
38.0,21.0,16.0,8.0,-1.0,-33.0,-38.0,38.0,-10.0,4.0,4.0,-2.0,-19.0,-82.0,-166.0,-130.0,-33.0,-16.0,-13.0,-10.0,-18.0,-36.0,-64.0,-61.0,3
-21.0,-26.0,-27.0,-30.0,-30.0,-28.0,-31.0,-25.0,-32.0,-26.0,-28.0,-30.0,-27.0,-27.0,-35.0,-20.0,-32.0,81.0,-31.0,-31.0,-28.0,-23.0,-6.0,3.0,3
2.0,6.0,3.0,4.0,2.0,-3.0,-3.0,-13.0,-39.0,4.0,6.0,6.0,6.0,5.0,2.0,0.0,-313.0,-357.0,-134.0,-3.0,-1.0,-3.0,-80.0,-334.0,3
-41.0,-45.0,-38.0,-24.0,-18.0,5.0,8.0,-37.0,-44.0,-42.0,-30.0,-22.0,-7.0,29.0,67.0,10.0,-83.0,-229.0,-66.0,-30.0,-17.0,-5.0,-67.0,-208.0,3
-24.0,-30.0,-26.0,-16.0,-11.0,8.0,19.0,-17.0,-44.0,-29.0,-29.0,-24.0,-30.0,-29.0,-29.0,-15.0,-78.0,-230.0,-74.0,-41.0,-55.0,-101.0,-162.0,-208.0,3
-12.0,-12.0,3.0,5.0,1.0,-14.0,-48.0,-49.0,-12.0,-14.0,-8.0,-5.0,-10.0,-25.0,-36.0,-19.0,-100.0,-262.0,-79.0,-20.0,-20.0,-37.0,-148.0,-309.0,3
38.0,43.0,33.0,31.0,27.0,12.0,1.0,15.0,33.0,25.0,21.0,17.0,19.0,0.0,-40.0,-6.0,-17.0,23.0,-31.0,6.0,9.0,12.0,-5.0,-24.0,3
18.0,25.0,21.0,21.0,17.0,-3.0,-1.0,-4.0,18.0,29.0,23.0,22.0,13.0,12.0,9.0,22.0,4.0,35.0,27.0,19.0,13.0,10.0,44.0,73.0,3
89.0,74.0,70.0,69.0,70.0,52.0,63.0,68.0,43.0,69.0,65.0,64.0,59.0,65.0,73.0,43.0,-47.0,43.0,51.0,44.0,38.0,34.0,52.0,75.0,3
26.0,32.0,32.0,32.0,38.0,49.0,30.0,-13.0,29.0,33.0,32.0,33.0,39.0,55.0,51.0,48.0,14.0,23.0,30.0,28.0,25.0,15.0,4.0,3.0,3
9.0,4.0,3.0,5.0,10.0,21.0,14.0,8.0,0.0,5.0,6.0,9.0,13.0,36.0,43.0,-7.0,-47.0,21.0,19.0,13.0,12.0,17.0,11.0,13.0,3
104.0,93.0,92.0,92.0,80.0,60.0,55.0,88.0,79.0,83.0,85.0,86.0,71.0,28.0,-47.0,-5.0,121.0,18.0,37.0,57.0,65.0,63.0,60.0,38.0,3
0.0,36.0,34.0,34.0,29.0,33.0,37.0,53.0,-55.0,34.0,35.0,32.0,33.0,58.0,41.0,34.0,130.0,366.0,292.0,116.0,74.0,38.0,-20.0,78.0,3
-29.0,-38.0,-44.0,-49.0,-61.0,-83.0,-132.0,-56.0,-17.0,-38.0,-44.0,-48.0,-53.0,-73.0,-105.0,-38.0,-72.0,-226.0,-79.0,-45.0,-42.0,-37.0,-58.0,-148.0,3
-65.0,-65.0,-63.0,-58.0,-56.0,-41.0,-13.0,-48.0,-78.0,-58.0,-56.0,-52.0,-48.0,-46.0,-29.0,-85.0,-107.0,-136.0,-47.0,-42.0,-35.0,-24.0,-31.0,-92.0,3
7.0,6.0,5.0,6.0,4.0,0.0,3.0,-8.0,-28.0,6.0,4.0,5.0,8.0,6.0,4.0,7.0,-47.0,-33.0,-11.0,0.0,2.0,3.0,-5.0,-55.0,3
10.0,-2.0,-5.0,-3.0,-5.0,-16.0,-35.0,-6.0,-5.0,-6.0,-8.0,-8.0,-12.0,-42.0,-78.0,-48.0,-24.0,7.0,1.0,-6.0,-12.0,-16.0,-9.0,-10.0,3
40.0,39.0,38.0,37.0,39.0,45.0,58.0,44.0,43.0,37.0,36.0,36.0,40.0,51.0,48.0,34.0,53.0,28.0,13.0,29.0,31.0,33.0,21.0,29.0,3
12.0,34.0,39.0,46.0,48.0,41.0,12.0,-44.0,-60.0,7.0,18.0,27.0,24.0,2.0,-40.0,-164.0,-116.0,-26.0,55.0,31.0,17.0,-2.0,6.0,-14.0,3
-46.0,-35.0,-38.0,-40.0,-47.0,-59.0,-83.0,-39.0,-41.0,-30.0,-32.0,-34.0,-39.0,-45.0,-8.0,20.0,-124.0,0.0,46.0,-1.0,-7.0,4.0,16.0,21.0,3
-68.0,-20.0,-22.0,-26.0,-32.0,-69.0,-62.0,5.0,-111.0,-14.0,-17.0,-22.0,-29.0,-69.0,-56.0,-2.0,-30.0,268.0,172.0,62.0,22.0,-3.0,-85.0,-35.0,3
20.0,17.0,17.0,14.0,6.0,1.0,-1.0,9.0,11.0,17.0,17.0,15.0,11.0,2.0,-12.0,-17.0,17.0,9.0,7.0,10.0,14.0,27.0,19.0,14.0,3
43.0,61.0,60.0,59.0,55.0,59.0,51.0,54.0,-20.0,56.0,53.0,57.0,56.0,43.0,60.0,55.0,-11.0,247.0,235.0,112.0,76.0,55.0,-141.0,-167.0,3
-17.0,-33.0,-34.0,-29.0,-29.0,-40.0,-61.0,-31.0,-66.0,-34.0,-34.0,-33.0,-29.0,-36.0,-90.0,-117.0,-37.0,71.0,-81.0,-51.0,-41.0,-44.0,-50.0,-126.0,3
21.0,22.0,23.0,25.0,28.0,38.0,36.0,53.0,25.0,21.0,20.0,23.0,30.0,42.0,56.0,61.0,40.0,39.0,23.0,21.0,23.0,28.0,58.0,80.0,3
-88.0,-91.0,-90.0,-96.0,-93.0,-77.0,-48.0,-57.0,-89.0,-89.0,-88.0,-92.0,-86.0,-85.0,-54.0,-48.0,-37.0,-2.0,-67.0,-86.0,-83.0,-79.0,-49.0,32.0,3
-7.0,-20.0,-20.0,-24.0,-15.0,6.0,54.0,19.0,213.0,-14.0,-14.0,-14.0,-1.0,44.0,51.0,19.0,312.0,-5.0,-83.0,-23.0,-8.0,17.0,-6.0,-20.0,3
60.0,55.0,46.0,40.0,42.0,38.0,39.0,29.0,37.0,37.0,39.0,41.0,55.0,61.0,38.0,68.0,32.0,-115.0,0.0,27.0,44.0,79.0,44.0,-47.0,3
-4.0,-27.0,-34.0,-25.0,-19.0,14.0,41.0,24.0,-8.0,-24.0,-27.0,-21.0,-5.0,31.0,45.0,53.0,-38.0,-172.0,-38.0,-21.0,-11.0,4.0,2.0,-103.0,3
10.0,0.0,4.0,10.0,11.0,2.0,-14.0,-46.0,15.0,1.0,5.0,8.0,11.0,10.0,8.0,12.0,-116.0,-444.0,-201.0,-39.0,-12.0,-7.0,-82.0,-260.0,3
-71.0,-64.0,-65.0,-66.0,-66.0,-61.0,-80.0,-87.0,-62.0,-70.0,-68.0,-64.0,-57.0,-43.0,-19.0,25.0,-48.0,-85.0,-73.0,-63.0,-55.0,-43.0,-57.0,-76.0,3
4.0,-5.0,-10.0,-11.0,-12.0,-1.0,2.0,-7.0,-16.0,-10.0,-10.0,-11.0,-11.0,8.0,-1.0,-13.0,-29.0,-70.0,-10.0,-10.0,-13.0,-23.0,-29.0,-41.0,3
19.0,8.0,9.0,7.0,4.0,-3.0,-39.0,-31.0,12.0,12.0,13.0,11.0,11.0,-12.0,-12.0,19.0,-73.0,-196.0,-65.0,-12.0,1.0,17.0,-1.0,-103.0,3
-52.0,-35.0,-37.0,-41.0,-37.0,-15.0,27.0,-11.0,-69.0,-35.0,-31.0,-32.0,-26.0,-4.0,9.0,-25.0,-111.0,121.0,34.0,-8.0,-14.0,-7.0,58.0,58.0,3
-349.0,-320.0,-320.0,-320.0,-314.0,-320.0,-320.0,-322.0,-425.0,-319.0,-318.0,-317.0,-315.0,-317.0,-336.0,-343.0,-912.0,-62.0,-186.0,-273.0,-299.0,-305.0,-252.0,-270.0,3
46.0,46.0,45.0,40.0,32.0,16.0,38.0,49.0,25.0,29.0,33.0,27.0,19.0,-1.0,-31.0,-12.0,-4.0,13.0,21.0,21.0,14.0,1.0,-27.0,-8.0,3
-11.0,-7.0,-4.0,-2.0,0.0,0.0,0.0,-4.0,-12.0,-8.0,-6.0,-5.0,-5.0,-10.0,-15.0,-26.0,-14.0,-11.0,-1.0,-2.0,-1.0,-4.0,7.0,3.0,3
22.0,25.0,17.0,19.0,15.0,-4.0,-36.0,-8.0,-11.0,17.0,12.0,11.0,5.0,-40.0,-98.0,-41.0,-122.0,-201.0,-56.0,8.0,7.0,-11.0,-103.0,-232.0,3
10.0,35.0,40.0,43.0,43.0,32.0,15.0,-46.0,9.0,34.0,37.0,38.0,35.0,48.0,35.0,21.0,-9.0,61.0,50.0,33.0,29.0,27.0,94.0,67.0,3
-1.0,18.0,23.0,25.0,21.0,10.0,52.0,76.0,-74.0,18.0,20.0,23.0,16.0,12.0,11.0,25.0,56.0,313.0,256.0,98.0,49.0,16.0,-77.0,38.0,3
-17.0,-18.0,-20.0,-19.0,-20.0,-18.0,-21.0,-23.0,-18.0,-17.0,-15.0,-18.0,-15.0,-11.0,-14.0,-14.0,-26.0,-29.0,-5.0,-7.0,-8.0,-3.0,1.0,-2.0,3
0.0,-5.0,-2.0,-6.0,3.0,23.0,53.0,38.0,5.0,12.0,6.0,6.0,18.0,55.0,64.0,23.0,11.0,3.0,6.0,6.0,10.0,29.0,40.0,15.0,3
7.0,12.0,12.0,11.0,6.0,1.0,3.0,2.0,4.0,0.0,4.0,7.0,6.0,7.0,3.0,5.0,1.0,13.0,1.0,2.0,3.0,3.0,5.0,5.0,3
-5.0,-26.0,-31.0,-31.0,-37.0,-32.0,-4.0,2.0,-30.0,-29.0,-30.0,-31.0,-46.0,-103.0,-154.0,-80.0,-131.0,-304.0,-88.0,-33.0,-39.0,-82.0,-272.0,-392.0,3
1.0,-41.0,-43.0,-23.0,-12.0,17.0,84.0,27.0,-23.0,-42.0,-31.0,-13.0,4.0,49.0,78.0,102.0,-113.0,-184.0,-16.0,-12.0,-3.0,4.0,-59.0,-210.0,3
-9.0,-11.0,-9.0,-3.0,6.0,43.0,47.0,-2.0,2.0,-4.0,-2.0,5.0,23.0,83.0,120.0,42.0,31.0,9.0,5.0,7.0,19.0,46.0,130.0,58.0,3
25.0,21.0,21.0,16.0,10.0,-4.0,-17.0,1.0,16.0,8.0,8.0,8.0,3.0,-17.0,-53.0,-42.0,-4.0,-21.0,-54.0,-12.0,-9.0,-7.0,5.0,-7.0,3
46.0,35.0,34.0,38.0,32.0,25.0,0.0,35.0,16.0,23.0,24.0,24.0,17.0,-1.0,-55.0,-73.0,-43.0,-205.0,-39.0,5.0,4.0,-5.0,-39.0,-125.0,3
-35.0,10.0,11.0,10.0,3.0,-39.0,-126.0,-50.0,-102.0,-5.0,0.0,-3.0,-20.0,-73.0,-135.0,-116.0,-86.0,128.0,118.0,59.0,18.0,-27.0,-193.0,-187.0,3
-25.0,-16.0,-18.0,-19.0,-21.0,-26.0,-58.0,-56.0,-22.0,-22.0,-19.0,-19.0,-21.0,-27.0,-10.0,8.0,-29.0,4.0,7.0,-12.0,-16.0,-25.0,-65.0,-36.0,3
-9.0,-11.0,-12.0,-8.0,-8.0,-11.0,-9.0,-4.0,-20.0,-9.0,-12.0,-13.0,-12.0,-3.0,-13.0,-12.0,86.0,99.0,68.0,8.0,-5.0,-9.0,-39.0,26.0,3
-56.0,-35.0,-32.0,-29.0,-29.0,-16.0,-59.0,-120.0,-66.0,-34.0,-31.0,-28.0,-22.0,-8.0,2.0,-37.0,-106.0,21.0,4.0,-11.0,-12.0,-10.0,13.0,10.0,3
5.0,0.0,-9.0,-8.0,-5.0,-2.0,-29.0,-14.0,4.0,-14.0,-12.0,-8.0,-5.0,-15.0,-37.0,-35.0,-23.0,-2.0,-50.0,-15.0,-13.0,-11.0,-37.0,-22.0,3
42.0,-9.0,-9.0,-3.0,-5.0,-15.0,-11.0,-26.0,28.0,-12.0,-13.0,-7.0,-4.0,-18.0,-12.0,-6.0,-107.0,-655.0,-266.0,-90.0,-49.0,-26.0,-56.0,-275.0,3
-41.0,-48.0,-46.0,-44.0,-46.0,-49.0,-49.0,-58.0,-71.0,-45.0,-44.0,-43.0,-44.0,-53.0,-29.0,-39.0,-122.0,-152.0,-58.0,-39.0,-39.0,-50.0,-107.0,-131.0,3
7.0,5.0,7.0,7.0,8.0,9.0,-15.0,4.0,-24.0,-9.0,-3.0,-1.0,-1.0,-29.0,-58.0,-100.0,-13.0,-16.0,-16.0,-4.0,-4.0,-6.0,-33.0,-45.0,3
-45.0,-80.0,-64.0,-56.0,-60.0,-76.0,-83.0,-65.0,-65.0,-64.0,-67.0,-61.0,-67.0,-78.0,-99.0,-46.0,-90.0,-217.0,-90.0,-66.0,-74.0,-87.0,-130.0,-204.0,3
-1.0,-9.0,-11.0,-9.0,-7.0,10.0,17.0,4.0,-4.0,-10.0,-11.0,-10.0,-5.0,8.0,11.0,7.0,-8.0,-19.0,-16.0,-9.0,-9.0,-12.0,-31.0,-27.0,3
-39.0,-42.0,-43.0,-45.0,-48.0,-58.0,-53.0,-38.0,-67.0,-42.0,-42.0,-49.0,-55.0,-75.0,-100.0,-80.0,-85.0,102.0,-35.0,-41.0,-44.0,-49.0,-37.0,-8.0,3
20.0,8.0,4.0,1.0,-7.0,-46.0,-37.0,-14.0,-47.0,-1.0,0.0,-6.0,-19.0,-59.0,-131.0,-111.0,-47.0,-10.0,-89.0,-32.0,-30.0,-53.0,-179.0,-254.0,3
18.0,19.0,18.0,17.0,19.0,21.0,25.0,9.0,-22.0,16.0,19.0,20.0,21.0,26.0,16.0,19.0,-77.0,-123.0,-20.0,12.0,15.0,17.0,1.0,-78.0,3
-7.0,0.0,3.0,4.0,4.0,1.0,-34.0,-30.0,9.0,4.0,3.0,2.0,0.0,0.0,-20.0,-1.0,32.0,21.0,1.0,-1.0,-4.0,-10.0,26.0,21.0,3
-52.0,-21.0,-22.0,-23.0,-26.0,-19.0,5.0,53.0,-69.0,-20.0,-20.0,-23.0,-22.0,-3.0,-16.0,-18.0,64.0,229.0,154.0,36.0,12.0,-12.0,-21.0,55.0,3
17.0,-11.0,-12.0,-8.0,-13.0,-22.0,-12.0,-19.0,-7.0,-7.0,-13.0,-10.0,-11.0,-32.0,-16.0,-13.0,34.0,-72.0,-8.0,-28.0,-31.0,-22.0,15.0,45.0,3
-9.0,-21.0,-16.0,-15.0,-11.0,-1.0,35.0,22.0,67.0,-6.0,-11.0,-11.0,-6.0,-37.0,-37.0,-27.0,-22.0,-206.0,1.0,0.0,-9.0,-10.0,-64.0,-44.0,3
-13.0,-25.0,-24.0,-25.0,-17.0,5.0,19.0,27.0,49.0,-21.0,-24.0,-24.0,-12.0,10.0,-7.0,7.0,71.0,18.0,-22.0,-24.0,-17.0,-10.0,-19.0,-23.0,3
23.0,30.0,28.0,32.0,32.0,37.0,10.0,-45.0,11.0,30.0,29.0,33.0,42.0,76.0,98.0,52.0,-14.0,55.0,46.0,34.0,40.0,67.0,85.0,65.0,3
67.0,68.0,66.0,68.0,64.0,63.0,63.0,47.0,109.0,76.0,72.0,68.0,69.0,82.0,88.0,119.0,147.0,-47.0,7.0,64.0,78.0,85.0,80.0,11.0,3
5.0,-4.0,-5.0,-4.0,-5.0,-26.0,-42.0,-73.0,18.0,1.0,-4.0,-2.0,-2.0,-9.0,21.0,32.0,-85.0,-192.0,-75.0,-24.0,-15.0,-15.0,-17.0,-113.0,3
76.0,92.0,96.0,101.0,104.0,102.0,85.0,72.0,91.0,88.0,95.0,103.0,107.0,125.0,140.0,129.0,19.0,127.0,114.0,101.0,106.0,120.0,128.0,101.0,3
107.0,39.0,38.0,43.0,38.0,35.0,39.0,41.0,-828.0,42.0,36.0,38.0,40.0,13.0,38.0,38.0,-133.0,-138.0,68.0,46.0,32.0,35.0,-29.0,-97.0,3
-10.0,-15.0,-17.0,-16.0,-18.0,-16.0,-28.0,-16.0,-16.0,-14.0,-16.0,-15.0,-20.0,-34.0,-47.0,-28.0,-15.0,-20.0,-7.0,-13.0,-16.0,-18.0,-22.0,-12.0,3
-8.0,-11.0,-12.0,-12.0,-17.0,-40.0,-62.0,-43.0,-22.0,-7.0,-10.0,-13.0,-14.0,-50.0,-165.0,-105.0,-52.0,-96.0,-53.0,-24.0,-22.0,-39.0,-83.0,-225.0,3
11.0,26.0,25.0,29.0,29.0,21.0,16.0,-2.0,-38.0,25.0,27.0,29.0,28.0,31.0,25.0,27.0,-282.0,-190.0,-66.0,20.0,26.0,24.0,5.0,-164.0,3
-43.0,-41.0,-40.0,-39.0,-31.0,-32.0,-57.0,-75.0,-44.0,-31.0,-29.0,-25.0,-25.0,-12.0,24.0,18.0,-41.0,138.0,-9.0,-17.0,-14.0,-9.0,38.0,60.0,3
-8.0,-6.0,-8.0,-6.0,-6.0,-6.0,-8.0,-5.0,-14.0,-6.0,-4.0,-5.0,-8.0,-7.0,-10.0,-9.0,-44.0,-5.0,5.0,-1.0,-4.0,-7.0,-3.0,-2.0,3
-13.0,-9.0,-8.0,-7.0,-7.0,0.0,19.0,10.0,-27.0,-10.0,-8.0,-9.0,-10.0,-12.0,-14.0,-16.0,-70.0,29.0,11.0,0.0,-3.0,-19.0,-57.0,-28.0,3
46.0,-28.0,-35.0,-37.0,-32.0,-14.0,80.0,259.0,14.0,-19.0,-24.0,-27.0,-16.0,13.0,13.0,14.0,26.0,-36.0,-27.0,-24.0,-19.0,-16.0,-31.0,-21.0,3
2.0,15.0,16.0,17.0,18.0,12.0,-12.0,-82.0,6.0,15.0,16.0,16.0,17.0,17.0,13.0,18.0,-25.0,-35.0,-7.0,6.0,10.0,11.0,1.0,-17.0,3
-28.0,-24.0,-26.0,-22.0,-20.0,0.0,-1.0,-9.0,-32.0,-18.0,-16.0,-15.0,-14.0,0.0,3.0,8.0,-79.0,44.0,77.0,12.0,0.0,-2.0,14.0,15.0,3
-41.0,-44.0,-39.0,-35.0,-31.0,-16.0,-9.0,-33.0,-26.0,-29.0,-32.0,-29.0,-24.0,-8.0,14.0,-33.0,-4.0,-35.0,-22.0,-22.0,-19.0,-10.0,1.0,-11.0,3
-28.0,-24.0,-24.0,-28.0,-34.0,-67.0,-121.0,-70.0,-49.0,-36.0,-32.0,-34.0,-41.0,-72.0,-132.0,-133.0,-26.0,-65.0,-47.0,-35.0,-36.0,-31.0,-78.0,-72.0,3
3.0,4.0,5.0,9.0,17.0,29.0,44.0,-2.0,-2.0,5.0,6.0,7.0,16.0,42.0,46.0,16.0,-9.0,-11.0,8.0,8.0,7.0,7.0,4.0,-2.0,3
-47.0,-26.0,-34.0,-52.0,-63.0,-134.0,-74.0,-12.0,-210.0,-33.0,-37.0,-47.0,-55.0,-134.0,-221.0,-251.0,174.0,579.0,215.0,11.0,-13.0,25.0,179.0,542.0,3
-21.0,-19.0,-18.0,-14.0,-12.0,-8.0,21.0,12.0,-9.0,-14.0,-14.0,-13.0,-10.0,-1.0,27.0,54.0,-3.0,-1.0,-7.0,-8.0,-5.0,-1.0,-11.0,-10.0,3
-88.0,-48.0,-50.0,-48.0,-50.0,-60.0,-60.0,-19.0,-227.0,-35.0,-52.0,-52.0,-56.0,-69.0,-96.0,-85.0,-659.0,283.0,157.0,13.0,-26.0,-52.0,-58.0,1.0,3
27.0,23.0,19.0,20.0,19.0,21.0,20.0,21.0,26.0,25.0,21.0,21.0,23.0,32.0,34.0,41.0,41.0,29.0,18.0,16.0,17.0,19.0,29.0,33.0,3
145.0,156.0,156.0,158.0,161.0,153.0,175.0,150.0,159.0,151.0,155.0,160.0,162.0,197.0,217.0,211.0,65.0,162.0,149.0,148.0,147.0,147.0,93.0,103.0,3
10.0,10.0,10.0,10.0,9.0,17.0,1.0,-29.0,17.0,13.0,12.0,12.0,18.0,42.0,68.0,42.0,54.0,6.0,8.0,11.0,17.0,31.0,53.0,38.0,3
-35.0,-4.0,-6.0,-7.0,-19.0,-66.0,-44.0,25.0,-106.0,-5.0,-8.0,-13.0,-37.0,-99.0,-128.0,-32.0,-168.0,93.0,37.0,21.0,-7.0,-36.0,-128.0,-60.0,3
-35.0,-31.0,-32.0,-29.0,-20.0,24.0,97.0,32.0,-10.0,-14.0,-17.0,-15.0,-6.0,51.0,97.0,40.0,-30.0,65.0,25.0,1.0,5.0,11.0,73.0,79.0,3
89.0,66.0,63.0,70.0,74.0,83.0,110.0,95.0,59.0,61.0,59.0,68.0,76.0,98.0,83.0,75.0,-34.0,-167.0,0.0,36.0,37.0,37.0,-24.0,-147.0,3
54.0,41.0,38.0,36.0,40.0,65.0,74.0,71.0,54.0,32.0,25.0,33.0,45.0,69.0,78.0,59.0,125.0,18.0,33.0,37.0,46.0,53.0,43.0,46.0,3
26.0,20.0,17.0,15.0,20.0,44.0,45.0,56.0,19.0,23.0,23.0,21.0,28.0,46.0,46.0,43.0,21.0,15.0,25.0,23.0,27.0,38.0,38.0,35.0,3
6.0,-4.0,-2.0,0.0,2.0,0.0,-26.0,-63.0,-3.0,-12.0,-7.0,-5.0,-3.0,-12.0,-31.0,-90.0,42.0,-71.0,-37.0,-21.0,-16.0,-11.0,-13.0,-33.0,3
22.0,21.0,20.0,18.0,24.0,21.0,-2.0,10.0,13.0,16.0,19.0,21.0,22.0,21.0,4.0,-8.0,23.0,-2.0,7.0,11.0,13.0,17.0,15.0,9.0,3
13.0,4.0,3.0,5.0,5.0,6.0,17.0,33.0,10.0,19.0,8.0,6.0,7.0,4.0,-7.0,21.0,-14.0,41.0,7.0,10.0,6.0,-1.0,-52.0,-27.0,3
1.0,0.0,-3.0,-7.0,-21.0,-60.0,-80.0,16.0,-7.0,-9.0,-10.0,-14.0,-31.0,-93.0,-145.0,-84.0,159.0,-417.0,-50.0,11.0,-5.0,-38.0,-225.0,-350.0,3
-32.0,-62.0,-60.0,-49.0,-52.0,-56.0,-57.0,-67.0,-78.0,-50.0,-56.0,-51.0,-52.0,-65.0,-51.0,-51.0,-67.0,-240.0,-66.0,-56.0,-61.0,-50.0,1.0,18.0,3
25.0,26.0,31.0,24.0,21.0,5.0,-37.0,-6.0,9.0,13.0,17.0,22.0,16.0,-3.0,-9.0,27.0,-13.0,-59.0,3.0,13.0,14.0,14.0,5.0,-25.0,3
61.0,59.0,62.0,63.0,56.0,14.0,-11.0,4.0,-37.0,29.0,39.0,41.0,27.0,-18.0,-94.0,-159.0,-161.0,-367.0,-82.0,2.0,-1.0,-26.0,-147.0,-279.0,3
-77.0,-43.0,-38.0,-35.0,-40.0,-66.0,-132.0,-135.0,-29.0,-22.0,-27.0,-30.0,-37.0,-49.0,-45.0,6.0,-139.0,8.0,-10.0,-28.0,-36.0,-44.0,-39.0,-45.0,3
-32.0,-47.0,-59.0,-59.0,-57.0,-70.0,-58.0,-60.0,-41.0,-56.0,-57.0,-56.0,-46.0,-47.0,-86.0,-86.0,-74.0,-138.0,-79.0,-58.0,-53.0,-33.0,-91.0,-158.0,3
-22.0,-17.0,-26.0,-26.0,-32.0,-27.0,-31.0,-40.0,-55.0,-21.0,-20.0,-21.0,-22.0,-24.0,-30.0,-23.0,-90.0,-146.0,-39.0,-19.0,-23.0,-21.0,-27.0,-69.0,3
-24.0,-10.0,-4.0,-4.0,-6.0,-12.0,-17.0,1.0,-13.0,-9.0,-8.0,-6.0,-10.0,-22.0,-46.0,5.0,-39.0,37.0,13.0,-2.0,-5.0,-7.0,12.0,40.0,3
53.0,44.0,42.0,37.0,25.0,-29.0,-106.0,-13.0,8.0,25.0,25.0,20.0,-4.0,-69.0,-134.0,-109.0,-73.0,29.0,25.0,6.0,-11.0,-36.0,-98.0,-35.0,3
15.0,-5.0,-6.0,0.0,-2.0,-8.0,-5.0,-10.0,0.0,2.0,-6.0,-3.0,-8.0,-25.0,-3.0,-2.0,155.0,-124.0,-22.0,-16.0,-19.0,-9.0,21.0,44.0,3
-22.0,-21.0,-25.0,-20.0,-17.0,-4.0,44.0,32.0,-148.0,-8.0,-11.0,-10.0,-2.0,22.0,56.0,53.0,-409.0,242.0,149.0,11.0,-4.0,24.0,247.0,331.0,3
110.0,113.0,114.0,119.0,122.0,128.0,134.0,124.0,134.0,104.0,112.0,117.0,123.0,151.0,155.0,123.0,206.0,62.0,91.0,108.0,119.0,133.0,157.0,95.0,3
19.0,12.0,5.0,6.0,0.0,-15.0,-52.0,-13.0,29.0,12.0,10.0,0.0,-5.0,-11.0,-8.0,31.0,8.0,-21.0,27.0,5.0,-4.0,-10.0,22.0,37.0,3
-24.0,-27.0,-24.0,-18.0,-13.0,4.0,27.0,-15.0,3.0,-17.0,-16.0,-17.0,-8.0,5.0,35.0,6.0,43.0,-63.0,-9.0,-14.0,-6.0,5.0,49.0,42.0,3
45.0,0.0,-2.0,3.0,0.0,4.0,47.0,92.0,19.0,1.0,0.0,2.0,1.0,-4.0,-1.0,1.0,-77.0,-233.0,-81.0,-23.0,-14.0,1.0,58.0,38.0,3
-93.0,-91.0,-97.0,-107.0,-108.0,-97.0,-98.0,-100.0,-109.0,-105.0,-103.0,-111.0,-102.0,-96.0,-111.0,-113.0,-81.0,-116.0,-108.0,-105.0,-103.0,-98.0,-100.0,-116.0,3
6.0,7.0,8.0,8.0,9.0,18.0,26.0,16.0,15.0,12.0,11.0,11.0,13.0,25.0,27.0,17.0,21.0,14.0,5.0,3.0,4.0,6.0,13.0,14.0,3
-108.0,-130.0,-122.0,-113.0,-109.0,-86.0,-5.0,-56.0,-55.0,-86.0,-94.0,-91.0,-82.0,-46.0,33.0,117.0,-57.0,-192.0,-88.0,-69.0,-61.0,-40.0,-103.0,-129.0,3
20.0,17.0,15.0,13.0,11.0,17.0,23.0,32.0,21.0,18.0,17.0,18.0,14.0,5.0,-10.0,12.0,83.0,10.0,17.0,19.0,19.0,9.0,27.0,14.0,3
26.0,9.0,7.0,3.0,-1.0,-8.0,1.0,64.0,-17.0,1.0,2.0,-3.0,-15.0,-46.0,-82.0,70.0,-155.0,245.0,-47.0,-25.0,-27.0,-66.0,-207.0,-142.0,3
-37.0,-19.0,-19.0,-16.0,-20.0,-29.0,-145.0,-288.0,-41.0,-20.0,-18.0,-18.0,-19.0,-27.0,-25.0,-24.0,-226.0,-280.0,-149.0,-23.0,-16.0,-16.0,-77.0,-313.0,3
-9.0,-14.0,-17.0,-16.0,-10.0,-6.0,-33.0,-3.0,14.0,-14.0,-11.0,-9.0,-4.0,6.0,29.0,44.0,-39.0,-13.0,1.0,-2.0,2.0,9.0,27.0,23.0,3
-7.0,-5.0,-5.0,-11.0,-19.0,-41.0,-112.0,-79.0,-14.0,-12.0,-12.0,-14.0,-21.0,-46.0,-70.0,-28.0,-5.0,-8.0,-14.0,-15.0,-15.0,-10.0,-33.0,-16.0,3
-44.0,-38.0,-33.0,-30.0,-24.0,4.0,31.0,-28.0,-66.0,-40.0,-28.0,-26.0,-28.0,-26.0,-22.0,-2.0,-60.0,-3.0,-28.0,-22.0,-22.0,-33.0,-97.0,-45.0,3
-22.0,-18.0,-17.0,-16.0,-17.0,-33.0,-51.0,-26.0,80.0,-14.0,-18.0,-19.0,-20.0,-52.0,-27.0,-7.0,-17.0,-206.0,-18.0,-11.0,-20.0,-18.0,-25.0,-20.0,3
-39.0,-27.0,-28.0,-24.0,-24.0,-2.0,41.0,-4.0,-56.0,-33.0,-30.0,-28.0,-31.0,-32.0,-21.0,-58.0,-122.0,3.0,46.0,-8.0,-22.0,-41.0,-47.0,-41.0,3
-13.0,-9.0,-7.0,-3.0,2.0,15.0,32.0,-12.0,-4.0,5.0,2.0,6.0,19.0,58.0,92.0,61.0,7.0,-14.0,8.0,8.0,21.0,48.0,128.0,64.0,3
37.0,19.0,21.0,25.0,28.0,33.0,29.0,20.0,55.0,14.0,15.0,21.0,22.0,33.0,48.0,11.0,193.0,-191.0,-93.0,-14.0,0.0,3.0,-75.0,-88.0,3
61.0,55.0,57.0,57.0,53.0,33.0,-23.0,-2.0,42.0,42.0,42.0,49.0,48.0,58.0,51.0,68.0,17.0,-148.0,-12.0,26.0,29.0,45.0,99.0,-43.0,3
-7.0,19.0,21.0,20.0,11.0,-29.0,-73.0,-31.0,-15.0,12.0,14.0,12.0,-2.0,-47.0,-102.0,6.0,-107.0,-148.0,6.0,33.0,17.0,-16.0,-161.0,-338.0,3
-9.0,-88.0,-87.0,-80.0,-70.0,-53.0,-15.0,-67.0,98.0,-51.0,-63.0,-63.0,-50.0,-34.0,106.0,126.0,1245.0,-654.0,-242.0,-153.0,-96.0,-73.0,-250.0,-197.0,3
11.0,11.0,9.0,10.0,12.0,16.0,-24.0,-11.0,19.0,6.0,9.0,7.0,0.0,-8.0,-51.0,-25.0,103.0,-93.0,148.0,2.0,-1.0,-2.0,44.0,81.0,3
47.0,47.0,46.0,47.0,47.0,44.0,38.0,47.0,70.0,53.0,49.0,50.0,45.0,78.0,120.0,93.0,85.0,48.0,55.0,44.0,36.0,24.0,60.0,56.0,3
-69.0,-89.0,-99.0,-91.0,-88.0,-50.0,47.0,5.0,-102.0,-90.0,-91.0,-89.0,-87.0,-77.0,-52.0,-7.0,-134.0,-290.0,-122.0,-87.0,-84.0,-86.0,-159.0,-261.0,3
96.0,80.0,78.0,84.0,87.0,101.0,81.0,92.0,122.0,92.0,79.0,84.0,92.0,113.0,103.0,121.0,100.0,-54.0,58.0,77.0,84.0,88.0,78.0,20.0,3
-8.0,26.0,27.0,25.0,20.0,27.0,30.0,49.0,-23.0,27.0,26.0,23.0,22.0,51.0,33.0,26.0,151.0,351.0,200.0,80.0,54.0,31.0,39.0,156.0,3
74.0,37.0,54.0,61.0,67.0,86.0,148.0,120.0,97.0,78.0,64.0,66.0,75.0,120.0,175.0,115.0,47.0,-86.0,35.0,50.0,56.0,66.0,41.0,3.0,3
10.0,2.0,1.0,4.0,3.0,-4.0,-21.0,-9.0,-8.0,-6.0,-2.0,2.0,0.0,-13.0,-51.0,-32.0,14.0,23.0,3.0,0.0,3.0,3.0,22.0,18.0,3
0.0,-13.0,-14.0,-12.0,-14.0,-23.0,-82.0,-156.0,17.0,-13.0,-10.0,-11.0,-15.0,-29.0,-26.0,-16.0,-270.0,-573.0,-294.0,-56.0,-25.0,-17.0,-101.0,-379.0,3
-12.0,-18.0,-17.0,-18.0,-9.0,25.0,36.0,8.0,12.0,2.0,-5.0,-5.0,1.0,41.0,54.0,19.0,47.0,15.0,11.0,-3.0,-1.0,7.0,10.0,13.0,3
-16.0,-7.0,-4.0,-7.0,-1.0,8.0,46.0,64.0,-8.0,-8.0,-9.0,-6.0,-4.0,-10.0,-11.0,25.0,228.0,-1.0,-107.0,-57.0,-22.0,25.0,396.0,618.0,3
-37.0,-35.0,-37.0,-41.0,-46.0,-41.0,-56.0,-31.0,-24.0,-32.0,-34.0,-38.0,-37.0,-32.0,-6.0,31.0,-33.0,-40.0,-22.0,-24.0,-22.0,-14.0,-45.0,-27.0,3
122.0,96.0,95.0,105.0,110.0,134.0,145.0,135.0,148.0,101.0,101.0,110.0,119.0,138.0,138.0,131.0,124.0,-24.0,92.0,108.0,114.0,124.0,94.0,31.0,3
-38.0,-23.0,-15.0,-7.0,-5.0,-5.0,-53.0,-90.0,-12.0,-3.0,0.0,2.0,9.0,28.0,33.0,33.0,15.0,-145.0,-21.0,4.0,10.0,17.0,10.0,-48.0,3
32.0,35.0,30.0,30.0,31.0,21.0,7.0,-22.0,-12.0,19.0,27.0,28.0,29.0,28.0,28.0,27.0,-55.0,-325.0,-109.0,-7.0,14.0,23.0,-8.0,-139.0,3
-6.0,-8.0,-8.0,-8.0,-7.0,-7.0,-12.0,1.0,-30.0,-16.0,-14.0,-10.0,-10.0,-15.0,-25.0,-33.0,-39.0,74.0,-27.0,-16.0,-17.0,-20.0,-24.0,-15.0,3
12.0,17.0,20.0,22.0,20.0,18.0,-13.0,-9.0,-13.0,7.0,12.0,14.0,2.0,-16.0,-61.0,-77.0,-12.0,25.0,13.0,9.0,0.0,-19.0,33.0,10.0,3
-29.0,-38.0,-39.0,-35.0,-34.0,-43.0,-31.0,-41.0,-234.0,-32.0,-39.0,-37.0,-37.0,-38.0,-34.0,-34.0,43.0,156.0,173.0,22.0,-20.0,-34.0,-46.0,44.0,3
38.0,41.0,44.0,44.0,43.0,25.0,3.0,20.0,23.0,25.0,30.0,30.0,27.0,2.0,-69.0,-28.0,67.0,-1.0,-5.0,13.0,5.0,-20.0,-19.0,-22.0,3
-18.0,1.0,-1.0,-2.0,-3.0,-4.0,-14.0,-17.0,-66.0,-1.0,0.0,-4.0,-3.0,-3.0,-8.0,2.0,-370.0,-200.0,-74.0,6.0,4.0,1.0,-20.0,-214.0,3
38.0,29.0,26.0,21.0,9.0,-14.0,62.0,56.0,18.0,24.0,26.0,22.0,4.0,-27.0,-57.0,-93.0,-2.0,-3.0,6.0,14.0,6.0,-5.0,7.0,-1.0,3
42.0,9.0,14.0,17.0,16.0,1.0,13.0,13.0,8.0,16.0,16.0,15.0,16.0,12.0,10.0,14.0,-45.0,-260.0,-115.0,-26.0,-12.0,2.0,15.0,-16.0,3
-54.0,-96.0,-102.0,-102.0,-103.0,-113.0,-109.0,-121.0,-70.0,-103.0,-103.0,-102.0,-103.0,-105.0,-108.0,-106.0,-214.0,-637.0,-340.0,-183.0,-146.0,-120.0,-132.0,-300.0,3
49.0,48.0,43.0,32.0,20.0,-36.0,-76.0,-24.0,9.0,31.0,31.0,28.0,10.0,-33.0,-61.0,-27.0,-107.0,70.0,25.0,20.0,16.0,31.0,35.0,-1.0,3
-60.0,-59.0,-57.0,-52.0,-43.0,-26.0,-23.0,-47.0,-33.0,-46.0,-44.0,-39.0,-32.0,0.0,47.0,41.0,-19.0,-63.0,-45.0,-35.0,-31.0,-20.0,-15.0,-40.0,3
92.0,91.0,92.0,91.0,96.0,103.0,93.0,93.0,108.0,85.0,89.0,92.0,91.0,105.0,97.0,91.0,192.0,35.0,59.0,73.0,81.0,79.0,93.0,74.0,3
6.0,3.0,0.0,3.0,0.0,6.0,-15.0,-11.0,10.0,2.0,0.0,2.0,5.0,6.0,6.0,-2.0,35.0,-6.0,1.0,9.0,12.0,13.0,25.0,25.0,3
-57.0,-93.0,-94.0,-88.0,-80.0,-89.0,-81.0,-94.0,-492.0,-85.0,-93.0,-90.0,-85.0,-100.0,-87.0,-82.0,-73.0,51.0,133.0,-24.0,-71.0,-82.0,-125.0,-72.0,3
-18.0,-6.0,-3.0,-4.0,-12.0,-33.0,-57.0,-46.0,6.0,-4.0,-5.0,-2.0,3.0,-25.0,-29.0,-12.0,11.0,-128.0,-23.0,0.0,18.0,62.0,14.0,-70.0,3
50.0,53.0,59.0,54.0,41.0,-27.0,-101.0,-5.0,33.0,37.0,37.0,38.0,20.0,-44.0,-101.0,-46.0,5.0,-17.0,5.0,21.0,12.0,10.0,-10.0,-49.0,3
35.0,32.0,31.0,28.0,24.0,20.0,41.0,39.0,37.0,31.0,31.0,27.0,21.0,5.0,-32.0,23.0,23.0,15.0,13.0,19.0,15.0,0.0,-37.0,-19.0,3
-27.0,-35.0,-30.0,-28.0,-27.0,-34.0,-23.0,8.0,-134.0,-34.0,-35.0,-34.0,-30.0,-42.0,-52.0,-54.0,-225.0,-271.0,-66.0,-18.0,-22.0,-31.0,-111.0,-203.0,3
-26.0,-31.0,-29.0,-30.0,-29.0,-39.0,-23.0,-48.0,-36.0,-27.0,-30.0,-25.0,-23.0,-15.0,-11.0,-33.0,-33.0,-76.0,-44.0,-35.0,-33.0,-24.0,-22.0,-72.0,3
4.0,10.0,11.0,13.0,9.0,14.0,11.0,-4.0,9.0,12.0,10.0,7.0,16.0,27.0,40.0,29.0,43.0,20.0,41.0,18.0,17.0,17.0,8.0,10.0,3
12.0,10.0,7.0,9.0,7.0,17.0,5.0,8.0,12.0,8.0,6.0,8.0,12.0,17.0,16.0,-8.0,34.0,-5.0,1.0,11.0,15.0,19.0,38.0,23.0,3
-28.0,-5.0,-5.0,-2.0,1.0,1.0,-64.0,-116.0,-38.0,-8.0,-6.0,-3.0,5.0,13.0,2.0,-18.0,-112.0,47.0,31.0,7.0,2.0,-3.0,21.0,23.0,3
-56.0,-59.0,-60.0,-54.0,-47.0,-8.0,-1.0,-60.0,1.0,-32.0,-37.0,-35.0,-21.0,16.0,65.0,87.0,-34.0,-193.0,-58.0,-28.0,-15.0,-2.0,-61.0,-118.0,3
10.0,-20.0,-22.0,-19.0,-22.0,-29.0,-20.0,-20.0,-21.0,-25.0,-20.0,-18.0,-17.0,-25.0,-23.0,-19.0,-120.0,-386.0,-192.0,-65.0,-41.0,-24.0,-16.0,-93.0,3
15.0,-16.0,-18.0,-17.0,-17.0,-21.0,-15.0,-14.0,-1.0,-23.0,-14.0,-14.0,-17.0,-31.0,-19.0,-16.0,-121.0,-497.0,-246.0,-82.0,-45.0,-23.0,-11.0,-132.0,3
-9.0,-9.0,-9.0,-6.0,-3.0,6.0,36.0,31.0,-2.0,-7.0,-7.0,-6.0,-2.0,2.0,-12.0,-3.0,8.0,-1.0,0.0,-4.0,-2.0,0.0,15.0,15.0,3
-8.0,-9.0,-8.0,-6.0,1.0,36.0,59.0,22.0,-14.0,-8.0,-4.0,-4.0,-8.0,-5.0,0.0,-45.0,-7.0,2.0,-2.0,-3.0,-6.0,-17.0,-31.0,-7.0,3
-21.0,-40.0,-35.0,-25.0,-14.0,11.0,52.0,18.0,-7.0,-5.0,-14.0,-12.0,11.0,80.0,204.0,204.0,-85.0,85.0,-7.0,-7.0,8.0,29.0,100.0,108.0,3
-24.0,-30.0,-29.0,-20.0,-14.0,18.0,78.0,24.0,-60.0,-23.0,-22.0,-14.0,-6.0,55.0,119.0,47.0,-185.0,-151.0,-14.0,-15.0,-11.0,-15.0,-103.0,-257.0,3
7.0,11.0,11.0,10.0,4.0,-10.0,-48.0,-45.0,0.0,0.0,2.0,3.0,-6.0,-36.0,-78.0,-39.0,29.0,-47.0,-24.0,-4.0,-4.0,-7.0,-70.0,-75.0,3
-23.0,-2.0,-5.0,-7.0,-8.0,-5.0,-9.0,-22.0,-70.0,-9.0,-4.0,-5.0,-6.0,-5.0,-7.0,14.0,-371.0,-35.0,34.0,18.0,6.0,6.0,44.0,-93.0,3
-19.0,-9.0,-7.0,-5.0,-10.0,-12.0,-26.0,-37.0,-7.0,-8.0,-6.0,-8.0,-12.0,-26.0,-35.0,-14.0,22.0,20.0,3.0,-5.0,-8.0,-15.0,2.0,39.0,3
27.0,33.0,32.0,38.0,34.0,34.0,35.0,42.0,-106.0,34.0,31.0,32.0,30.0,54.0,38.0,34.0,120.0,205.0,264.0,102.0,64.0,41.0,28.0,133.0,3
86.0,76.0,78.0,78.0,74.0,78.0,51.0,62.0,90.0,74.0,76.0,77.0,75.0,84.0,88.0,84.0,147.0,12.0,32.0,54.0,68.0,76.0,76.0,62.0,3
-23.0,-14.0,-13.0,-17.0,-29.0,-82.0,-134.0,-65.0,-9.0,-18.0,-16.0,-22.0,-34.0,-64.0,-58.0,42.0,1.0,-5.0,-14.0,-21.0,-22.0,-23.0,-10.0,2.0,3
-23.0,-20.0,-24.0,-21.0,-19.0,-17.0,-29.0,-12.0,-16.0,-23.0,-22.0,-19.0,-13.0,-11.0,5.0,22.0,-29.0,-37.0,-19.0,-12.0,-8.0,-5.0,-3.0,-23.0,3
11.0,10.0,7.0,10.0,8.0,19.0,11.0,12.0,10.0,8.0,6.0,8.0,13.0,19.0,17.0,-15.0,32.0,-6.0,1.0,11.0,16.0,21.0,43.0,23.0,3
30.0,23.0,20.0,25.0,28.0,25.0,-43.0,-51.0,20.0,20.0,20.0,25.0,29.0,31.0,50.0,40.0,2.0,-51.0,10.0,16.0,18.0,26.0,46.0,14.0,3
-19.0,-35.0,-36.0,-31.0,-29.0,-43.0,-28.0,-41.0,-284.0,-31.0,-39.0,-35.0,-32.0,-38.0,-31.0,-31.0,30.0,152.0,177.0,25.0,-21.0,-35.0,-53.0,31.0,3
4.0,4.0,2.0,2.0,-1.0,-3.0,-16.0,-22.0,-18.0,2.0,6.0,2.0,-4.0,-3.0,-9.0,-6.0,-217.0,-417.0,-177.0,-18.0,0.0,1.0,-97.0,-388.0,3
-61.0,-18.0,-17.0,-16.0,-14.0,-21.0,-37.0,-40.0,-216.0,-10.0,-10.0,-10.0,-15.0,-13.0,-31.0,-76.0,-208.0,582.0,338.0,56.0,7.0,8.0,209.0,474.0,3
-333.0,-309.0,-308.0,-301.0,-291.0,-290.0,-237.0,-323.0,-368.0,-287.0,-290.0,-288.0,-273.0,-237.0,-175.0,-255.0,-762.0,-98.0,-174.0,-241.0,-255.0,-231.0,-109.0,-171.0,3
-3.0,-6.0,-8.0,-7.0,-2.0,2.0,3.0,6.0,0.0,-9.0,-8.0,-6.0,0.0,-5.0,-8.0,-15.0,29.0,-35.0,-24.0,-4.0,-1.0,-1.0,-21.0,-28.0,3
-8.0,-4.0,-4.0,-13.0,-29.0,-85.0,-133.0,-69.0,-16.0,-10.0,-7.0,-18.0,-41.0,-103.0,-146.0,-88.0,3.0,-21.0,-7.0,-17.0,-30.0,-53.0,-37.0,-21.0,3
-30.0,-17.0,-22.0,-23.0,-21.0,1.0,-22.0,-60.0,-24.0,-11.0,-14.0,-16.0,-18.0,5.0,15.0,22.0,-117.0,41.0,25.0,-5.0,-12.0,-20.0,-1.0,14.0,3
17.0,15.0,17.0,18.0,19.0,20.0,19.0,1.0,34.0,19.0,17.0,19.0,24.0,42.0,33.0,41.0,98.0,-82.0,-33.0,3.0,11.0,30.0,71.0,15.0,3
-24.0,-17.0,-16.0,-14.0,-14.0,-20.0,-45.0,-38.0,-43.0,-25.0,-21.0,-18.0,-20.0,-32.0,-46.0,-58.0,-45.0,4.0,-10.0,-15.0,-17.0,-25.0,-13.0,-8.0,3
5.0,9.0,10.0,11.0,10.0,17.0,18.0,1.0,12.0,14.0,11.0,7.0,17.0,32.0,50.0,35.0,51.0,26.0,46.0,19.0,19.0,24.0,34.0,29.0,3
31.0,34.0,33.0,36.0,34.0,31.0,39.0,45.0,-158.0,38.0,30.0,33.0,31.0,29.0,39.0,34.0,126.0,68.0,223.0,83.0,45.0,25.0,-37.0,29.0,3
-2.0,-14.0,-16.0,-9.0,-7.0,5.0,64.0,19.0,-48.0,-8.0,-12.0,-9.0,-9.0,12.0,48.0,-14.0,-122.0,-307.0,-83.0,-24.0,-19.0,0.0,18.0,-181.0,3
-11.0,-3.0,-1.0,-2.0,-4.0,-7.0,-37.0,-41.0,1.0,-1.0,-2.0,-1.0,-2.0,-14.0,-28.0,-1.0,31.0,-7.0,-6.0,-1.0,1.0,-2.0,15.0,21.0,3
27.0,25.0,25.0,24.0,24.0,23.0,23.0,22.0,28.0,24.0,23.0,24.0,24.0,20.0,21.0,23.0,48.0,1.0,0.0,13.0,14.0,10.0,5.0,2.0,3
-9.0,-5.0,-10.0,-8.0,-5.0,11.0,18.0,12.0,-10.0,-10.0,-7.0,-8.0,-5.0,11.0,14.0,8.0,-30.0,36.0,2.0,3.0,1.0,2.0,-20.0,-27.0,3
-16.0,-6.0,-4.0,-7.0,-9.0,2.0,4.0,6.0,-6.0,-11.0,-5.0,-7.0,-7.0,-4.0,-3.0,3.0,-16.0,-2.0,-7.0,-5.0,-5.0,-7.0,-20.0,-7.0,3
-44.0,-42.0,-42.0,-37.0,-31.0,-6.0,8.0,14.0,-153.0,-47.0,-43.0,-37.0,-25.0,-3.0,-3.0,-47.0,-212.0,-249.0,-59.0,-16.0,-16.0,-16.0,-70.0,-169.0,3
-27.0,-33.0,-31.0,-29.0,-26.0,-12.0,-14.0,-27.0,-15.0,-14.0,-23.0,-25.0,-19.0,-15.0,-19.0,-22.0,-24.0,-78.0,-16.0,-19.0,-16.0,-5.0,24.0,0.0,3
-29.0,-17.0,-18.0,-16.0,-13.0,4.0,8.0,-8.0,-15.0,-12.0,-14.0,-14.0,-8.0,13.0,54.0,54.0,-100.0,-7.0,2.0,-5.0,-6.0,0.0,6.0,-17.0,3
-18.0,-30.0,-29.0,-27.0,-22.0,-9.0,-24.0,-61.0,-50.0,-29.0,-31.0,-25.0,-15.0,13.0,-9.0,-21.0,-18.0,75.0,-72.0,-43.0,-31.0,-35.0,-28.0,-124.0,3
15.0,15.0,20.0,26.0,21.0,16.0,21.0,19.0,-51.0,21.0,15.0,19.0,19.0,-5.0,18.0,18.0,-170.0,-72.0,99.0,42.0,16.0,11.0,-56.0,-84.0,3
-27.0,-27.0,-28.0,-30.0,-32.0,-29.0,-28.0,-22.0,-2.0,-20.0,-22.0,-25.0,-21.0,-8.0,43.0,101.0,20.0,-34.0,-24.0,-20.0,-17.0,-6.0,-11.0,-14.0,3
23.0,21.0,17.0,15.0,10.0,16.0,61.0,39.0,38.0,24.0,20.0,21.0,22.0,43.0,93.0,70.0,77.0,33.0,25.0,21.0,29.0,37.0,29.0,46.0,3
-136.0,-129.0,-130.0,-137.0,-138.0,-196.0,-189.0,-126.0,-205.0,-136.0,-140.0,-146.0,-169.0,-249.0,-367.0,-221.0,-571.0,-58.0,-95.0,-127.0,-159.0,-191.0,-251.0,-227.0,3
-40.0,-14.0,-14.0,-3.0,2.0,1.0,8.0,19.0,-64.0,-9.0,-5.0,-4.0,-6.0,-15.0,-17.0,1.0,15.0,128.0,197.0,69.0,23.0,5.0,62.0,261.0,3
6.0,4.0,2.0,8.0,11.0,8.0,-1.0,-19.0,35.0,19.0,14.0,16.0,23.0,60.0,103.0,111.0,48.0,1.0,13.0,20.0,25.0,50.0,116.0,61.0,3
-4.0,-5.0,-4.0,-4.0,-8.0,-25.0,-75.0,-45.0,-18.0,-13.0,-13.0,-16.0,-22.0,-42.0,-68.0,-38.0,-28.0,-24.0,-16.0,-16.0,-22.0,-32.0,-14.0,-19.0,3
8.0,4.0,1.0,-1.0,-2.0,-1.0,-50.0,-53.0,-8.0,-4.0,-3.0,-6.0,-4.0,-9.0,-47.0,-65.0,-32.0,-78.0,-12.0,-5.0,-6.0,-9.0,-30.0,-55.0,3
-11.0,-11.0,-29.0,-34.0,-16.0,13.0,59.0,12.0,5.0,-22.0,-22.0,-22.0,-6.0,29.0,59.0,14.0,49.0,-50.0,-21.0,-4.0,-1.0,3.0,16.0,-16.0,3
16.0,16.0,10.0,9.0,8.0,3.0,9.0,10.0,18.0,4.0,6.0,5.0,3.0,3.0,-10.0,-18.0,-6.0,-8.0,-6.0,0.0,-4.0,-16.0,-47.0,-31.0,3
-20.0,-21.0,-21.0,-20.0,-17.0,10.0,23.0,39.0,-33.0,-20.0,-21.0,-17.0,-8.0,6.0,15.0,6.0,-95.0,74.0,27.0,-1.0,3.0,11.0,50.0,45.0,3
20.0,21.0,34.0,36.0,31.0,0.0,-25.0,0.0,0.0,16.0,21.0,25.0,13.0,-16.0,-37.0,-70.0,-12.0,-8.0,2.0,14.0,3.0,-22.0,-41.0,-33.0,3
118.0,106.0,103.0,108.0,112.0,167.0,169.0,155.0,161.0,113.0,108.0,112.0,124.0,171.0,166.0,153.0,117.0,-51.0,86.0,108.0,119.0,137.0,162.0,63.0,3
20.0,3.0,-3.0,-3.0,4.0,50.0,157.0,121.0,23.0,11.0,6.0,5.0,8.0,45.0,47.0,38.0,-15.0,38.0,18.0,6.0,3.0,-6.0,10.0,25.0,3
-58.0,-45.0,-42.0,-40.0,-45.0,-44.0,-63.0,-69.0,-28.0,-31.0,-33.0,-37.0,-45.0,-53.0,-30.0,-35.0,-82.0,-64.0,22.0,-19.0,-35.0,-51.0,-36.0,-30.0,3
-74.0,-47.0,-49.0,-44.0,-42.0,-33.0,35.0,8.0,-138.0,-36.0,-33.0,-32.0,-30.0,18.0,93.0,23.0,-28.0,124.0,116.0,20.0,-7.0,-34.0,-181.0,-31.0,3
-79.0,-80.0,-77.0,-67.0,-66.0,-45.0,-85.0,-164.0,-89.0,-68.0,-69.0,-62.0,-58.0,-16.0,-3.0,-14.0,-64.0,-126.0,-103.0,-65.0,-64.0,-80.0,-75.0,-200.0,3
108.0,100.0,100.0,100.0,102.0,119.0,113.0,115.0,114.0,90.0,94.0,98.0,105.0,123.0,118.0,105.0,191.0,39.0,66.0,90.0,104.0,112.0,97.0,63.0,3
64.0,8.0,13.0,18.0,16.0,10.0,49.0,83.0,33.0,13.0,12.0,10.0,12.0,11.0,11.0,10.0,-1.0,-230.0,-84.0,-33.0,-19.0,2.0,59.0,75.0,3
13.0,7.0,7.0,8.0,19.0,50.0,75.0,56.0,24.0,15.0,12.0,17.0,28.0,66.0,63.0,64.0,25.0,15.0,17.0,15.0,21.0,33.0,59.0,33.0,3
-61.0,-62.0,-66.0,-73.0,-63.0,-38.0,-22.0,-14.0,-103.0,-61.0,-61.0,-62.0,-45.0,-15.0,17.0,24.0,362.0,512.0,248.0,-38.0,-39.0,-14.0,134.0,424.0,3
3.0,3.0,1.0,0.0,1.0,-14.0,-32.0,-20.0,-2.0,-3.0,2.0,-1.0,-4.0,-11.0,-15.0,-21.0,11.0,2.0,3.0,-4.0,-6.0,-10.0,19.0,21.0,3
10.0,21.0,21.0,22.0,22.0,25.0,-6.0,-62.0,-4.0,19.0,21.0,21.0,22.0,24.0,16.0,15.0,-26.0,29.0,28.0,19.0,17.0,17.0,24.0,16.0,3
3.0,-3.0,-2.0,-3.0,-7.0,-9.0,37.0,84.0,-23.0,2.0,-3.0,-4.0,-5.0,-17.0,-2.0,-7.0,283.0,362.0,178.0,27.0,0.0,-9.0,-85.0,-15.0,3
28.0,-8.0,-9.0,-5.0,-13.0,-13.0,-23.0,-34.0,40.0,-6.0,-8.0,-9.0,-8.0,-31.0,-13.0,-9.0,15.0,-253.0,-99.0,-54.0,-37.0,-15.0,48.0,58.0,3
15.0,-32.0,-36.0,-34.0,-28.0,9.0,130.0,75.0,-65.0,-16.0,-21.0,-20.0,-13.0,22.0,65.0,62.0,-84.0,-99.0,-51.0,-58.0,-40.0,5.0,178.0,183.0,3
50.0,42.0,42.0,41.0,37.0,27.0,2.0,16.0,56.0,41.0,41.0,42.0,33.0,5.0,-11.0,46.0,114.0,-8.0,8.0,32.0,38.0,25.0,0.0,27.0,3
21.0,29.0,27.0,23.0,12.0,-27.0,-77.0,-20.0,14.0,17.0,18.0,14.0,0.0,-43.0,-76.0,-35.0,-12.0,32.0,19.0,12.0,9.0,7.0,0.0,21.0,3
20.0,12.0,11.0,17.0,15.0,36.0,36.0,39.0,33.0,23.0,18.0,22.0,25.0,49.0,48.0,35.0,-15.0,-211.0,-28.0,11.0,19.0,25.0,-19.0,-128.0,3
-6.0,-3.0,-2.0,0.0,-2.0,-12.0,-11.0,-13.0,-17.0,-4.0,-4.0,-3.0,-4.0,-10.0,-20.0,-21.0,-17.0,-8.0,-11.0,-8.0,-10.0,-9.0,0.0,-8.0,3
21.0,46.0,47.0,51.0,55.0,52.0,68.0,121.0,-100.0,37.0,44.0,46.0,42.0,7.0,10.0,-11.0,115.0,529.0,213.0,89.0,63.0,64.0,118.0,403.0,3
-5.0,-2.0,-3.0,-2.0,5.0,0.0,6.0,1.0,-4.0,-1.0,0.0,2.0,12.0,24.0,11.0,0.0,-4.0,-8.0,-7.0,-1.0,2.0,4.0,-10.0,-22.0,3
-6.0,-7.0,-3.0,0.0,-1.0,0.0,-6.0,1.0,-8.0,-1.0,-4.0,-8.0,-6.0,-10.0,-33.0,-37.0,-19.0,39.0,-1.0,-1.0,0.0,3.0,38.0,7.0,3
1.0,-1.0,-4.0,-17.0,-30.0,-69.0,-145.0,-66.0,0.0,-10.0,-15.0,-26.0,-48.0,-121.0,-194.0,-91.0,-45.0,-38.0,-32.0,-29.0,-41.0,-64.0,-85.0,-82.0,3
38.0,12.0,10.0,9.0,9.0,0.0,8.0,5.0,42.0,5.0,10.0,9.0,4.0,-9.0,3.0,8.0,-203.0,-655.0,-338.0,-72.0,-24.0,-3.0,-17.0,-248.0,3
46.0,50.0,48.0,46.0,40.0,52.0,31.0,38.0,41.0,44.0,45.0,45.0,43.0,43.0,39.0,27.0,108.0,29.0,40.0,41.0,43.0,41.0,29.0,35.0,3
-33.0,-36.0,-35.0,-33.0,-31.0,-16.0,12.0,-25.0,-31.0,-31.0,-31.0,-28.0,-28.0,-12.0,33.0,7.0,-19.0,-39.0,-34.0,-27.0,-24.0,-19.0,-51.0,-25.0,3
74.0,57.0,60.0,63.0,68.0,75.0,68.0,63.0,-39.0,32.0,38.0,49.0,52.0,62.0,31.0,-26.0,-182.0,265.0,-15.0,14.0,23.0,17.0,14.0,10.0,3
48.0,37.0,39.0,38.0,29.0,12.0,-14.0,17.0,8.0,21.0,22.0,25.0,16.0,-14.0,-66.0,-12.0,-61.0,-245.0,-50.0,3.0,5.0,-4.0,-82.0,-201.0,3
47.0,44.0,39.0,30.0,22.0,1.0,-18.0,34.0,-2.0,28.0,27.0,22.0,3.0,-54.0,-125.0,-11.0,-105.0,79.0,43.0,23.0,6.0,-23.0,-88.0,-21.0,3
7.0,-2.0,1.0,8.0,9.0,8.0,27.0,28.0,6.0,11.0,8.0,10.0,11.0,22.0,29.0,25.0,8.0,19.0,6.0,7.0,10.0,14.0,26.0,16.0,3
-47.0,-65.0,-69.0,-75.0,-68.0,-59.0,35.0,2.0,42.0,-54.0,-62.0,-68.0,-64.0,-71.0,-63.0,-9.0,13.0,-107.0,-38.0,-49.0,-53.0,-59.0,-81.0,-56.0,3
-36.0,-36.0,-35.0,-34.0,-31.0,-17.0,-32.0,-40.0,-24.0,-30.0,-30.0,-30.0,-20.0,-11.0,8.0,28.0,-14.0,-37.0,-20.0,-22.0,-16.0,-11.0,-19.0,-14.0,3
29.0,26.0,27.0,25.0,19.0,15.0,7.0,25.0,11.0,17.0,19.0,19.0,6.0,-8.0,-30.0,-48.0,12.0,9.0,10.0,13.0,6.0,-10.0,2.0,16.0,3
-12.0,-4.0,-3.0,-3.0,-6.0,-1.0,-33.0,-74.0,-13.0,-2.0,-3.0,-3.0,-6.0,-4.0,1.0,14.0,-16.0,9.0,9.0,5.0,1.0,4.0,14.0,11.0,3
-45.0,-37.0,-37.0,-39.0,-43.0,-64.0,-123.0,-102.0,-48.0,-38.0,-39.0,-41.0,-52.0,-86.0,-78.0,-28.0,-7.0,-175.0,-178.0,-84.0,-60.0,-38.0,283.0,426.0,3
-5.0,-6.0,-7.0,-5.0,-11.0,-24.0,-27.0,-15.0,4.0,6.0,3.0,-3.0,-8.0,-25.0,-40.0,-12.0,55.0,-64.0,-2.0,-4.0,-3.0,-3.0,-5.0,11.0,3
16.0,4.0,-2.0,0.0,3.0,15.0,3.0,-3.0,3.0,2.0,1.0,2.0,4.0,7.0,-9.0,29.0,-21.0,-57.0,1.0,4.0,3.0,5.0,6.0,-31.0,3
-100.0,-73.0,-70.0,-68.0,-57.0,-31.0,35.0,5.0,-194.0,-53.0,-54.0,-54.0,-48.0,1.0,102.0,73.0,235.0,535.0,157.0,-5.0,-33.0,-41.0,131.0,630.0,3
-2.0,-4.0,-4.0,-5.0,-3.0,0.0,-3.0,-10.0,-3.0,-6.0,-4.0,-3.0,-4.0,-8.0,-4.0,-2.0,17.0,-26.0,-22.0,-7.0,-5.0,-6.0,-15.0,-21.0,3
-9.0,-27.0,-24.0,-21.0,-20.0,-8.0,-1.0,-4.0,-35.0,-31.0,-24.0,-27.0,-27.0,-52.0,-108.0,-104.0,-65.0,-193.0,-71.0,-33.0,-36.0,-58.0,-128.0,-156.0,3
26.0,-5.0,-7.0,-5.0,-6.0,-10.0,-5.0,-6.0,2.0,-14.0,-6.0,-4.0,-1.0,-17.0,-9.0,-3.0,-93.0,-440.0,-210.0,-66.0,-32.0,-8.0,5.0,-99.0,3
13.0,14.0,15.0,12.0,10.0,-4.0,3.0,9.0,19.0,15.0,11.0,13.0,10.0,-3.0,-23.0,0.0,25.0,8.0,3.0,3.0,0.0,0.0,35.0,36.0,3
32.0,33.0,29.0,22.0,21.0,17.0,40.0,56.0,34.0,31.0,28.0,26.0,29.0,33.0,54.0,60.0,38.0,43.0,20.0,21.0,24.0,28.0,-1.0,29.0,3
-56.0,-41.0,-45.0,-47.0,-39.0,-34.0,22.0,13.0,-198.0,-41.0,-41.0,-38.0,-32.0,-39.0,-20.0,-29.0,93.0,422.0,249.0,25.0,-12.0,-5.0,171.0,524.0,3
12.0,-3.0,-11.0,-16.0,-21.0,-20.0,-8.0,22.0,-24.0,-6.0,-9.0,-16.0,-24.0,-42.0,-45.0,-42.0,-95.0,50.0,65.0,9.0,-4.0,-11.0,-24.0,-9.0,3
24.0,17.0,13.0,17.0,25.0,42.0,67.0,51.0,25.0,20.0,18.0,21.0,33.0,72.0,105.0,76.0,25.0,27.0,19.0,19.0,24.0,31.0,12.0,20.0,3
3.0,0.0,-2.0,-5.0,-11.0,-19.0,-56.0,-8.0,6.0,-2.0,-3.0,-5.0,-8.0,-22.0,-48.0,-26.0,21.0,-30.0,-15.0,-5.0,-2.0,7.0,3.0,-19.0,3
23.0,26.0,25.0,23.0,22.0,8.0,-14.0,-48.0,17.0,24.0,24.0,23.0,18.0,9.0,12.0,17.0,-7.0,2.0,13.0,16.0,14.0,14.0,15.0,-10.0,3
7.0,8.0,8.0,8.0,9.0,8.0,7.0,4.0,1.0,10.0,9.0,8.0,10.0,10.0,14.0,10.0,-17.0,-77.0,-11.0,4.0,7.0,9.0,20.0,7.0,3
1.0,-63.0,-60.0,-56.0,-54.0,-45.0,-17.0,-33.0,-23.0,-46.0,-44.0,-52.0,-52.0,-75.0,-61.0,21.0,261.0,-331.0,-200.0,-120.0,-91.0,-79.0,-85.0,-2.0,3
4.0,-3.0,-3.0,-1.0,-5.0,-8.0,-14.0,6.0,-12.0,-8.0,-6.0,-6.0,-10.0,-16.0,-1.0,1.0,-18.0,-15.0,-7.0,-4.0,-7.0,-13.0,-57.0,-27.0,3
21.0,26.0,24.0,25.0,27.0,25.0,26.0,0.0,13.0,25.0,24.0,25.0,25.0,27.0,38.0,34.0,-34.0,-43.0,1.0,14.0,14.0,14.0,5.0,-33.0,3
30.0,30.0,27.0,28.0,25.0,26.0,33.0,26.0,34.0,28.0,27.0,25.0,18.0,29.0,40.0,44.0,72.0,-46.0,20.0,3.0,10.0,12.0,17.0,24.0,3
2.0,18.0,23.0,33.0,42.0,49.0,37.0,8.0,-112.0,10.0,19.0,29.0,41.0,63.0,133.0,26.0,-153.0,-146.0,6.0,51.0,53.0,54.0,-77.0,-137.0,3
-41.0,-28.0,-27.0,-25.0,-27.0,-18.0,-54.0,-56.0,-52.0,-25.0,-24.0,-26.0,-26.0,-25.0,-32.0,-39.0,-103.0,-33.0,44.0,0.0,-8.0,-7.0,-35.0,-29.0,3
-70.0,-73.0,-75.0,-69.0,-74.0,-106.0,-117.0,-121.0,-74.0,-61.0,-62.0,-65.0,-73.0,-82.0,-15.0,-41.0,-75.0,-47.0,-73.0,-64.0,-61.0,-48.0,-31.0,-74.0,3
28.0,-30.0,-31.0,-36.0,-56.0,-131.0,-231.0,-122.0,31.0,-51.0,-41.0,-56.0,-91.0,-238.0,-344.0,-216.0,828.0,-626.0,-312.0,-165.0,-134.0,-153.0,-261.0,-239.0,3
-62.0,-19.0,-17.0,-22.0,-24.0,-38.0,-5.0,-31.0,-229.0,-20.0,-19.0,-20.0,-20.0,-33.0,-32.0,-9.0,-84.0,364.0,240.0,66.0,24.0,37.0,80.0,285.0,3
-102.0,-146.0,-148.0,-144.0,-144.0,-161.0,-152.0,-170.0,-123.0,-145.0,-148.0,-146.0,-143.0,-147.0,-150.0,-148.0,-236.0,-590.0,-340.0,-218.0,-191.0,-166.0,-155.0,-277.0,3
-18.0,-6.0,-6.0,-4.0,-4.0,-4.0,-43.0,-91.0,-14.0,-9.0,-6.0,-6.0,-2.0,-5.0,-15.0,-37.0,-16.0,-36.0,-22.0,-10.0,-6.0,-4.0,-27.0,-39.0,3
163.0,165.0,165.0,163.0,157.0,135.0,153.0,195.0,79.0,161.0,164.0,166.0,155.0,128.0,209.0,193.0,-46.0,-132.0,118.0,178.0,181.0,168.0,49.0,-24.0,3
-32.0,-26.0,-23.0,-20.0,-15.0,8.0,18.0,-28.0,-42.0,-25.0,-23.0,-20.0,-16.0,-6.0,-15.0,-96.0,-101.0,-18.0,-4.0,-14.0,-18.0,-28.0,3.0,10.0,3
24.0,36.0,37.0,33.0,23.0,-39.0,-121.0,-64.0,-6.0,16.0,23.0,19.0,1.0,-63.0,-97.0,-91.0,-7.0,-3.0,-13.0,1.0,-7.0,-25.0,-82.0,-68.0,3
1.0,27.0,25.0,32.0,23.0,-36.0,-41.0,23.0,-87.0,21.0,28.0,29.0,19.0,-3.0,-43.0,-72.0,26.0,183.0,167.0,64.0,40.0,43.0,58.0,101.0,3
-5.0,-6.0,-6.0,-3.0,-4.0,-3.0,-6.0,-6.0,-25.0,-6.0,-6.0,-5.0,-7.0,-10.0,-11.0,-7.0,-39.0,-35.0,-7.0,-4.0,-7.0,-8.0,-14.0,-30.0,3
52.0,-20.0,-24.0,-27.0,-18.0,-10.0,-11.0,4.0,134.0,-28.0,-31.0,-20.0,-15.0,-41.0,-38.0,-6.0,1362.0,-1303.0,-528.0,-146.0,-71.0,-45.0,-326.0,-562.0,3
-13.0,-13.0,-14.0,-12.0,-11.0,-12.0,-22.0,-29.0,-41.0,-15.0,-11.0,-10.0,-15.0,-19.0,-29.0,-23.0,-206.0,-376.0,-167.0,-22.0,-11.0,-13.0,-104.0,-333.0,3
-1.0,23.0,26.0,30.0,25.0,16.0,52.0,68.0,-75.0,20.0,23.0,26.0,21.0,22.0,26.0,37.0,58.0,315.0,257.0,101.0,54.0,22.0,-72.0,39.0,3
-34.0,-31.0,-32.0,-32.0,-29.0,-25.0,25.0,4.0,3.0,-23.0,-23.0,-26.0,-19.0,-18.0,24.0,45.0,-24.0,-203.0,-201.0,-58.0,-29.0,-11.0,287.0,492.0,3
17.0,-11.0,-7.0,-9.0,-12.0,10.0,156.0,309.0,-12.0,-19.0,-15.0,-14.0,-23.0,-45.0,-74.0,-90.0,-23.0,-58.0,-26.0,-16.0,-20.0,-36.0,-66.0,-66.0,3
8.0,-6.0,-6.0,0.0,9.0,56.0,79.0,38.0,8.0,-2.0,-4.0,3.0,20.0,112.0,118.0,28.0,-3.0,-99.0,-31.0,-8.0,-2.0,3.0,34.0,-29.0,3
-24.0,-12.0,-7.0,-1.0,6.0,21.0,54.0,0.0,-19.0,-2.0,-2.0,-2.0,4.0,21.0,48.0,35.0,-39.0,17.0,15.0,9.0,3.0,-7.0,-15.0,10.0,3
-92.0,-137.0,-142.0,-133.0,-131.0,-148.0,-135.0,-158.0,-760.0,-131.0,-141.0,-139.0,-135.0,-156.0,-142.0,-132.0,-229.0,-129.0,38.0,-93.0,-138.0,-144.0,-203.0,-200.0,3
-20.0,-23.0,-23.0,-23.0,-27.0,-27.0,14.0,55.0,-26.0,-20.0,-26.0,-25.0,-21.0,-29.0,-17.0,-23.0,254.0,381.0,182.0,27.0,-8.0,-31.0,-186.0,-111.0,3
-18.0,6.0,7.0,7.0,9.0,5.0,10.0,-36.0,-18.0,8.0,8.0,9.0,16.0,24.0,31.0,28.0,-93.0,59.0,41.0,16.0,17.0,37.0,40.0,39.0,3
-23.0,-21.0,-21.0,-16.0,-9.0,18.0,63.0,14.0,1.0,-15.0,-11.0,-8.0,3.0,31.0,45.0,-11.0,10.0,5.0,-4.0,-3.0,6.0,22.0,49.0,14.0,3
-148.0,-116.0,-118.0,-117.0,-127.0,-130.0,-113.0,-91.0,-260.0,-106.0,-106.0,-110.0,-129.0,-167.0,-184.0,-99.0,-768.0,230.0,92.0,-39.0,-85.0,-142.0,-192.0,-70.0,3
-8.0,-11.0,-12.0,-14.0,-12.0,-5.0,-11.0,-12.0,-1.0,-9.0,-10.0,-11.0,-7.0,-3.0,10.0,9.0,22.0,4.0,-7.0,-7.0,-5.0,-1.0,15.0,20.0,3
-34.0,-17.0,-10.0,-8.0,-10.0,-10.0,-17.0,-35.0,-16.0,-11.0,-10.0,-8.0,-5.0,4.0,4.0,29.0,-7.0,-47.0,-16.0,-10.0,-7.0,-10.0,21.0,17.0,3
-3.0,1.0,-1.0,-7.0,-19.0,-60.0,-82.0,-48.0,-15.0,-10.0,-10.0,-14.0,-26.0,-61.0,-92.0,-78.0,-16.0,-6.0,-11.0,-12.0,-11.0,5.0,-7.0,-20.0,3
-6.0,-4.0,0.0,-1.0,-8.0,-13.0,-35.0,-23.0,-18.0,-8.0,-6.0,-10.0,-8.0,-19.0,-32.0,-48.0,-41.0,96.0,-43.0,-3.0,0.0,-1.0,-3.0,-49.0,3
0.0,-8.0,-3.0,0.0,-7.0,-18.0,-25.0,-4.0,2.0,-7.0,-10.0,-3.0,-9.0,-11.0,0.0,18.0,-30.0,-107.0,-27.0,-12.0,-16.0,-33.0,-75.0,-73.0,3
-10.0,1.0,3.0,0.0,-5.0,-16.0,-47.0,-37.0,-4.0,-2.0,0.0,2.0,0.0,-16.0,-9.0,50.0,-48.0,53.0,25.0,6.0,7.0,12.0,29.0,36.0,3
-33.0,-38.0,-28.0,-27.0,-26.0,-24.0,-62.0,-56.0,-18.0,-28.0,-28.0,-26.0,-24.0,-32.0,-41.0,-29.0,-28.0,-35.0,-28.0,-24.0,-22.0,-20.0,-23.0,-20.0,3
-89.0,-46.0,-51.0,-45.0,-47.0,-32.0,-4.0,-14.0,-120.0,-35.0,-35.0,-32.0,-25.0,28.0,152.0,149.0,78.0,357.0,256.0,69.0,29.0,8.0,-14.0,114.0,3
12.0,11.0,6.0,3.0,0.0,18.0,46.0,65.0,-11.0,14.0,10.0,7.0,5.0,9.0,27.0,50.0,-102.0,-158.0,-27.0,14.0,16.0,4.0,-109.0,-212.0,3
0.0,-3.0,0.0,0.0,3.0,2.0,-55.0,-24.0,1.0,1.0,-4.0,2.0,5.0,-11.0,-52.0,-26.0,-14.0,42.0,2.0,2.0,1.0,4.0,50.0,6.0,3
2.0,-2.0,-1.0,-2.0,-1.0,12.0,-3.0,-38.0,-8.0,-2.0,-2.0,-1.0,-1.0,9.0,11.0,-2.0,-44.0,-54.0,-25.0,-3.0,-3.0,-2.0,-12.0,-43.0,3
-318.0,-291.0,-287.0,-278.0,-272.0,-278.0,-290.0,-310.0,-416.0,-283.0,-283.0,-279.0,-271.0,-252.0,-255.0,-248.0,-924.0,-20.0,-148.0,-242.0,-267.0,-268.0,-194.0,-229.0,3
25.0,19.0,22.0,26.0,27.0,46.0,84.0,62.0,33.0,27.0,29.0,29.0,35.0,50.0,45.0,13.0,88.0,32.0,28.0,29.0,36.0,42.0,64.0,54.0,3
-22.0,-28.0,-29.0,-31.0,-30.0,-6.0,-4.0,29.0,-22.0,-28.0,-26.0,-27.0,-29.0,-39.0,-65.0,-35.0,-2.0,-7.0,-17.0,-21.0,-17.0,-7.0,10.0,-7.0,3
-25.0,-21.0,-20.0,-25.0,-26.0,-33.0,-60.0,-57.0,-9.0,-23.0,-25.0,-28.0,-30.0,-65.0,-79.0,19.0,15.0,0.0,-18.0,-23.0,-18.0,-8.0,26.0,21.0,3
31.0,43.0,43.0,38.0,30.0,-18.0,-86.0,-28.0,30.0,27.0,28.0,28.0,12.0,-41.0,-97.0,-68.0,17.0,4.0,3.0,7.0,3.0,-6.0,40.0,19.0,3
23.0,27.0,28.0,18.0,1.0,-79.0,-93.0,-29.0,3.0,13.0,13.0,8.0,3.0,-73.0,-162.0,-114.0,79.0,-12.0,-18.0,-2.0,12.0,53.0,-4.0,-23.0,3
15.0,12.0,8.0,7.0,7.0,9.0,16.0,46.0,-10.0,11.0,11.0,10.0,8.0,4.0,3.0,34.0,-29.0,-43.0,8.0,10.0,10.0,7.0,8.0,11.0,3
-3.0,5.0,7.0,10.0,14.0,28.0,86.0,25.0,25.0,10.0,10.0,14.0,19.0,40.0,70.0,58.0,31.0,23.0,13.0,14.0,17.0,25.0,38.0,34.0,3
-22.0,-14.0,-13.0,-11.0,-7.0,-2.0,-9.0,-43.0,-26.0,-28.0,-18.0,-12.0,-13.0,-17.0,-45.0,-90.0,-55.0,-64.0,-11.0,-19.0,-24.0,-32.0,-18.0,-34.0,3
-10.0,-1.0,1.0,-2.0,-6.0,-26.0,-43.0,-27.0,-9.0,-3.0,0.0,-6.0,-15.0,-40.0,-76.0,-44.0,-18.0,-7.0,4.0,-6.0,-12.0,-21.0,-13.0,-1.0,3
38.0,64.0,62.0,62.0,55.0,52.0,54.0,57.0,-40.0,63.0,61.0,60.0,57.0,54.0,63.0,61.0,57.0,360.0,341.0,131.0,80.0,47.0,-135.0,-102.0,3
96.0,99.0,93.0,89.0,78.0,59.0,21.0,39.0,81.0,76.0,82.0,82.0,73.0,61.0,78.0,29.0,148.0,35.0,45.0,62.0,70.0,69.0,103.0,91.0,3
31.0,26.0,27.0,28.0,26.0,27.0,11.0,19.0,31.0,29.0,28.0,26.0,24.0,14.0,25.0,17.0,84.0,8.0,22.0,29.0,28.0,23.0,5.0,19.0,3
6.0,2.0,3.0,2.0,6.0,35.0,56.0,59.0,-32.0,2.0,-1.0,-1.0,-5.0,-14.0,8.0,51.0,454.0,441.0,136.0,21.0,8.0,1.0,120.0,510.0,3
33.0,36.0,35.0,34.0,32.0,23.0,9.0,-27.0,9.0,23.0,25.0,25.0,20.0,0.0,-19.0,-22.0,-21.0,-69.0,8.0,14.0,9.0,0.0,-7.0,-29.0,3
28.0,22.0,19.0,13.0,9.0,20.0,60.0,48.0,28.0,23.0,25.0,12.0,18.0,32.0,46.0,42.0,74.0,-2.0,15.0,25.0,27.0,21.0,8.0,1.0,3
-20.0,-24.0,-24.0,-26.0,-27.0,-31.0,-34.0,-28.0,-17.0,-23.0,-24.0,-25.0,-26.0,-33.0,-29.0,-23.0,15.0,-36.0,-35.0,-20.0,-18.0,-11.0,-25.0,-32.0,3
23.0,28.0,29.0,27.0,27.0,17.0,5.0,23.0,-6.0,20.0,24.0,23.0,19.0,4.0,-30.0,-72.0,-59.0,74.0,34.0,22.0,17.0,12.0,19.0,24.0,3
-10.0,-8.0,-7.0,-8.0,-10.0,-6.0,12.0,-26.0,6.0,-4.0,-4.0,-6.0,-9.0,-16.0,-17.0,-16.0,42.0,-25.0,-16.0,-6.0,-7.0,-12.0,-13.0,-8.0,3
-19.0,-12.0,-9.0,-7.0,-9.0,-6.0,-14.0,-29.0,-21.0,-16.0,-18.0,-14.0,-14.0,-3.0,12.0,-8.0,-26.0,1.0,-16.0,-15.0,-8.0,-1.0,7.0,-9.0,3
0.0,-2.0,-6.0,1.0,-2.0,-5.0,-22.0,-49.0,-41.0,-14.0,-6.0,-2.0,0.0,-2.0,1.0,-3.0,-67.0,-355.0,-130.0,-31.0,-11.0,-2.0,-31.0,-166.0,3
-49.0,-52.0,-54.0,-58.0,-59.0,-55.0,-38.0,-27.0,-18.0,-40.0,-43.0,-47.0,-47.0,-35.0,41.0,63.0,-8.0,-19.0,-41.0,-35.0,-34.0,-35.0,-70.0,-35.0,3
74.0,60.0,54.0,58.0,62.0,76.0,119.0,99.0,108.0,66.0,58.0,58.0,67.0,89.0,141.0,162.0,184.0,-21.0,27.0,59.0,76.0,77.0,78.0,62.0,3
-70.0,-74.0,-80.0,-85.0,-94.0,-117.0,-173.0,-102.0,-86.0,-91.0,-89.0,-99.0,-124.0,-221.0,-318.0,-225.0,-97.0,-126.0,-109.0,-106.0,-123.0,-175.0,-227.0,-173.0,3
-4.0,-10.0,-18.0,-23.0,-25.0,-28.0,-43.0,-46.0,-14.0,-4.0,-12.0,-15.0,-18.0,-21.0,-7.0,-13.0,-62.0,69.0,76.0,11.0,-4.0,-13.0,-16.0,16.0,3
-4.0,-8.0,-9.0,-3.0,2.0,21.0,14.0,8.0,-2.0,2.0,3.0,3.0,11.0,28.0,18.0,5.0,26.0,40.0,43.0,13.0,14.0,17.0,12.0,-5.0,3
13.0,19.0,21.0,21.0,25.0,21.0,3.0,1.0,9.0,21.0,21.0,21.0,27.0,32.0,35.0,33.0,1.0,63.0,23.0,21.0,20.0,23.0,21.0,6.0,3
36.0,20.0,17.0,22.0,17.0,7.0,21.0,36.0,15.0,15.0,14.0,17.0,12.0,-20.0,-26.0,17.0,-95.0,-259.0,-52.0,11.0,14.0,7.0,-139.0,-303.0,3
8.0,4.0,2.0,5.0,7.0,9.0,13.0,28.0,-3.0,-1.0,0.0,0.0,5.0,0.0,-30.0,5.0,-7.0,-10.0,-5.0,1.0,1.0,-3.0,-43.0,-33.0,3
179.0,175.0,173.0,174.0,168.0,152.0,124.0,121.0,184.0,164.0,163.0,164.0,154.0,131.0,114.0,91.0,117.0,-47.0,107.0,140.0,139.0,127.0,43.0,-1.0,3
17.0,16.0,14.0,10.0,15.0,12.0,3.0,27.0,5.0,12.0,13.0,15.0,13.0,12.0,3.0,-32.0,-18.0,9.0,2.0,11.0,8.0,3.0,-37.0,-27.0,3
9.0,2.0,4.0,5.0,4.0,10.0,29.0,7.0,28.0,10.0,6.0,8.0,9.0,8.0,8.0,31.0,31.0,-10.0,-39.0,-6.0,1.0,8.0,31.0,38.0,3
23.0,13.0,9.0,9.0,9.0,4.0,26.0,25.0,20.0,8.0,9.0,6.0,5.0,-10.0,-39.0,-24.0,103.0,-159.0,-78.0,-12.0,-9.0,-13.0,-52.0,-88.0,3
-5.0,-22.0,-23.0,-20.0,-15.0,21.0,70.0,35.0,-15.0,-29.0,-18.0,-17.0,-15.0,-6.0,-15.0,-45.0,-127.0,-264.0,-110.0,-39.0,-26.0,-28.0,-56.0,-179.0,3
-47.0,-38.0,-32.0,-20.0,-11.0,11.0,68.0,66.0,-76.0,-37.0,-33.0,-20.0,-7.0,9.0,33.0,-10.0,-192.0,-319.0,-100.0,-17.0,-7.0,-1.0,-36.0,-187.0,3
16.0,33.0,31.0,29.0,25.0,3.0,6.0,23.0,-5.0,33.0,31.0,31.0,24.0,10.0,31.0,16.0,-74.0,-109.0,8.0,38.0,35.0,19.0,-81.0,-192.0,3
-16.0,-15.0,-15.0,-17.0,-24.0,-60.0,-91.0,-50.0,-40.0,-24.0,-24.0,-29.0,-43.0,-89.0,-142.0,-94.0,-75.0,-41.0,-19.0,-29.0,-41.0,-56.0,-74.0,-63.0,3
-12.0,-17.0,-14.0,-13.0,-13.0,1.0,-9.0,-19.0,-7.0,-4.0,-8.0,-7.0,-9.0,-10.0,-16.0,-16.0,31.0,-4.0,-4.0,-11.0,-7.0,-11.0,14.0,13.0,3
-14.0,-16.0,-18.0,-16.0,-17.0,0.0,0.0,2.0,1.0,-10.0,-12.0,-13.0,-12.0,-6.0,-10.0,24.0,65.0,-26.0,-15.0,-10.0,-6.0,4.0,62.0,40.0,3
-29.0,-37.0,-27.0,-24.0,-23.0,-12.0,-12.0,-21.0,-31.0,-24.0,-27.0,-24.0,-22.0,-21.0,-22.0,-23.0,-52.0,-62.0,-13.0,-23.0,-20.0,-18.0,-6.0,-1.0,3
-17.0,-24.0,-27.0,-30.0,-39.0,-65.0,-143.0,-87.0,-43.0,-30.0,-32.0,-35.0,-39.0,-102.0,-189.0,-154.0,-129.0,-336.0,-99.0,-40.0,-33.0,-16.0,-104.0,-231.0,3
43.0,30.0,31.0,33.0,25.0,-7.0,-4.0,35.0,10.0,19.0,21.0,19.0,1.0,-58.0,-140.0,-70.0,-69.0,-95.0,-38.0,-8.0,-14.0,-35.0,-116.0,-144.0,3
-13.0,-6.0,-2.0,-4.0,-8.0,-15.0,-18.0,-28.0,-36.0,-13.0,-9.0,-11.0,-17.0,-29.0,-34.0,-66.0,-66.0,-95.0,-11.0,-14.0,-15.0,-11.0,-2.0,-33.0,3
-38.0,-28.0,-22.0,-20.0,-14.0,-15.0,2.0,-37.0,-20.0,-16.0,-18.0,-14.0,-10.0,14.0,52.0,68.0,-21.0,41.0,-15.0,-16.0,-18.0,-7.0,33.0,17.0,3
-11.0,-7.0,-9.0,-15.0,-25.0,-57.0,-65.0,-39.0,-20.0,-15.0,-16.0,-20.0,-24.0,-50.0,-70.0,-60.0,-16.0,-9.0,-12.0,-14.0,-10.0,12.0,7.0,-16.0,3
-47.0,-43.0,-41.0,-45.0,-54.0,-56.0,-105.0,-119.0,-38.0,-32.0,-33.0,-37.0,-47.0,-52.0,-72.0,-88.0,-92.0,-300.0,-85.0,-41.0,-40.0,-35.0,-58.0,-151.0,3
37.0,26.0,25.0,26.0,17.0,-7.0,-61.0,6.0,0.0,31.0,28.0,27.0,19.0,17.0,48.0,74.0,-67.0,-216.0,-47.0,14.0,17.0,9.0,-40.0,-87.0,3
20.0,8.0,5.0,1.0,-2.0,-2.0,19.0,70.0,16.0,5.0,0.0,-3.0,-7.0,-21.0,-72.0,8.0,8.0,12.0,0.0,-5.0,-9.0,-10.0,-3.0,3.0,3
-212.0,-233.0,-233.0,-227.0,-228.0,-238.0,-231.0,-244.0,-312.0,-227.0,-234.0,-231.0,-229.0,-249.0,-235.0,-226.0,-222.0,-273.0,-214.0,-233.0,-244.0,-228.0,-164.0,-124.0,3
26.0,-6.0,-6.0,-4.0,-4.0,-11.0,-5.0,-4.0,-6.0,-11.0,-4.0,-3.0,-3.0,-11.0,-10.0,-5.0,-121.0,-406.0,-192.0,-54.0,-27.0,-9.0,0.0,-86.0,3
-29.0,-33.0,-34.0,-34.0,-30.0,-20.0,18.0,1.0,-7.0,-19.0,-20.0,-20.0,-10.0,26.0,96.0,39.0,-4.0,-24.0,-18.0,-13.0,-8.0,7.0,10.0,-1.0,3
-29.0,-34.0,-37.0,-41.0,-48.0,-48.0,1.0,-7.0,-34.0,-33.0,-36.0,-39.0,-46.0,-72.0,-77.0,-27.0,-29.0,-31.0,-34.0,-33.0,-37.0,-56.0,-106.0,-51.0,3
27.0,28.0,27.0,22.0,21.0,2.0,-53.0,-11.0,6.0,15.0,16.0,18.0,12.0,-16.0,-62.0,-50.0,-10.0,-5.0,-58.0,9.0,7.0,-1.0,-24.0,-45.0,3
-42.0,-40.0,-38.0,-35.0,-30.0,-9.0,19.0,4.0,-31.0,-24.0,-28.0,-29.0,-24.0,-15.0,-10.0,3.0,-58.0,27.0,-4.0,-19.0,-17.0,-12.0,-21.0,5.0,3
-28.0,-31.0,-28.0,-30.0,-23.0,-20.0,-33.0,-36.0,-20.0,-16.0,-20.0,-15.0,-17.0,-12.0,5.0,-29.0,-35.0,-17.0,-11.0,-12.0,-13.0,-13.0,-52.0,-36.0,3
14.0,12.0,9.0,5.0,-5.0,-37.0,-73.0,-49.0,10.0,8.0,2.0,1.0,-4.0,-11.0,-7.0,9.0,-16.0,-9.0,-6.0,-3.0,-2.0,-2.0,-77.0,-64.0,3
-4.0,-11.0,-5.0,-4.0,-6.0,-14.0,-35.0,-33.0,-9.0,0.0,0.0,-3.0,-5.0,-11.0,-9.0,-4.0,-19.0,-12.0,-3.0,-6.0,-7.0,-12.0,-52.0,-22.0,3
-39.0,8.0,-1.0,-11.0,-20.0,-53.0,-20.0,7.0,-122.0,5.0,0.0,-9.0,-24.0,-86.0,-123.0,-14.0,56.0,480.0,268.0,91.0,31.0,-9.0,-124.0,90.0,3
-24.0,-51.0,-55.0,-57.0,-56.0,-69.0,-72.0,-84.0,-61.0,-39.0,-44.0,-46.0,-49.0,-55.0,-93.0,-34.0,-14.0,-63.0,-70.0,-49.0,-46.0,-56.0,-33.0,-171.0,3
-16.0,-16.0,-16.0,-15.0,-13.0,-11.0,-40.0,-35.0,-32.0,-23.0,-20.0,-19.0,-18.0,-21.0,-29.0,-49.0,-30.0,-35.0,-30.0,-21.0,-21.0,-23.0,-24.0,-29.0,3
3.0,-39.0,-32.0,-25.0,-33.0,-43.0,-37.0,-50.0,-56.0,-27.0,-31.0,-29.0,-37.0,-47.0,-36.0,-35.0,-58.0,-383.0,-148.0,-80.0,-66.0,-48.0,-23.0,-87.0,3
