0,1,2,3,4,5,6,7,8,9,10,11,12,13,14,15,16,17,18,19,20,21,22,23,24
-4.0,-5.0,-5.0,-5.0,0.0,-7.0,-27.0,-5.0,6.0,-12.0,-2.0,4.0,6.0,5.0,0.0,-7.0,14.0,0.0,3.0,0.0,-6.0,0.0,-7.0,-16.0,3
-6.0,-6.0,-5.0,-10.0,-7.0,-6.0,-6.0,-5.0,7.0,-16.0,-6.0,-2.0,-6.0,-9.0,-7.0,-6.0,3.0,3.0,-1.0,-1.0,-3.0,-7.0,-8.0,-10.0,3
21.0,13.0,13.0,14.0,16.0,18.0,33.0,20.0,24.0,-171.0,14.0,15.0,8.0,13.0,27.0,19.0,25.0,-344.0,9.0,12.0,25.0,5.0,-19.0,-64.0,3
-3.0,-5.0,-5.0,-7.0,-17.0,-16.0,-1.0,-2.0,-10.0,3.0,-4.0,-10.0,-23.0,-35.0,-4.0,0.0,-5.0,-9.0,2.0,-2.0,-9.0,-47.0,-1.0,5.0,3
20.0,20.0,19.0,16.0,0.0,-41.0,13.0,16.0,2.0,18.0,10.0,-1.0,-21.0,-83.0,-20.0,5.0,7.0,15.0,1.0,-8.0,-37.0,-32.0,-1.0,3.0,3
-11.0,-13.0,-12.0,-13.0,0.0,37.0,35.0,0.0,-13.0,-12.0,-12.0,-10.0,0.0,-20.0,0.0,-7.0,-11.0,-7.0,-7.0,-13.0,-38.0,-118.0,-26.0,-1.0,3
63.0,64.0,64.0,65.0,68.0,80.0,49.0,64.0,5.0,62.0,70.0,78.0,91.0,140.0,139.0,80.0,-82.0,-302.0,70.0,74.0,62.0,38.0,118.0,147.0,3
0.0,1.0,3.0,6.0,15.0,28.0,21.0,11.0,7.0,2.0,2.0,6.0,14.0,32.0,29.0,3.0,-9.0,-2.0,2.0,4.0,3.0,-21.0,18.0,25.0,3
10.0,10.0,14.0,21.0,26.0,-13.0,1.0,5.0,4.0,0.0,12.0,22.0,16.0,-4.0,-2.0,4.0,8.0,-2.0,1.0,-2.0,-7.0,21.0,-4.0,-2.0,3
16.0,15.0,15.0,14.0,12.0,58.0,41.0,22.0,-5.0,18.0,14.0,14.0,4.0,-12.0,15.0,18.0,2.0,-1.0,5.0,5.0,11.0,-20.0,-20.0,-8.0,3
20.0,20.0,23.0,29.0,41.0,59.0,37.0,25.0,-40.0,52.0,29.0,30.0,30.0,40.0,23.0,18.0,-19.0,-123.0,23.0,30.0,35.0,39.0,44.0,68.0,3
-14.0,-12.0,-10.0,-9.0,-12.0,-12.0,-21.0,-17.0,-22.0,-5.0,-6.0,-4.0,-10.0,-2.0,-37.0,-9.0,-16.0,-27.0,-4.0,4.0,25.0,36.0,-6.0,-12.0,3
0.0,-2.0,2.0,6.0,5.0,-32.0,-14.0,-11.0,34.0,-31.0,6.0,21.0,30.0,27.0,-32.0,-8.0,29.0,65.0,19.0,22.0,45.0,105.0,-28.0,-63.0,3
0.0,5.0,7.0,8.0,-1.0,-16.0,-9.0,-3.0,53.0,-16.0,3.0,7.0,15.0,12.0,6.0,0.0,14.0,63.0,0.0,2.0,4.0,-27.0,8.0,1.0,3
14.0,15.0,14.0,15.0,15.0,-4.0,17.0,16.0,26.0,12.0,21.0,22.0,23.0,53.0,45.0,27.0,-78.0,-132.0,21.0,31.0,43.0,30.0,61.0,70.0,3
3.0,3.0,4.0,9.0,21.0,44.0,11.0,2.0,-7.0,9.0,8.0,14.0,15.0,54.0,-6.0,3.0,-37.0,21.0,12.0,21.0,48.0,75.0,31.0,18.0,3
115.0,115.0,118.0,124.0,120.0,114.0,114.0,117.0,112.0,89.0,121.0,121.0,121.0,100.0,128.0,113.0,-269.0,-376.0,106.0,106.0,116.0,140.0,175.0,245.0,3
7.0,7.0,6.0,5.0,-6.0,3.0,-14.0,9.0,-100.0,35.0,15.0,7.0,8.0,38.0,24.0,11.0,-142.0,-343.0,11.0,13.0,22.0,32.0,45.0,67.0,3
5.0,5.0,7.0,12.0,33.0,25.0,5.0,-1.0,-29.0,23.0,7.0,8.0,20.0,14.0,3.0,1.0,-56.0,-37.0,-6.0,-13.0,-81.0,-83.0,11.0,34.0,3
12.0,12.0,11.0,12.0,10.0,2.0,4.0,9.0,87.0,-29.0,8.0,14.0,14.0,0.0,-10.0,5.0,23.0,25.0,6.0,10.0,18.0,17.0,8.0,8.0,3
-4.0,24.0,20.0,16.0,29.0,85.0,56.0,37.0,78.0,-260.0,-8.0,27.0,21.0,-32.0,23.0,27.0,-150.0,-715.0,3.0,31.0,35.0,43.0,97.0,249.0,3
3.0,4.0,2.0,2.0,-1.0,-2.0,0.0,2.0,-36.0,17.0,1.0,-3.0,0.0,-1.0,2.0,4.0,5.0,-6.0,2.0,4.0,3.0,0.0,4.0,10.0,3
4.0,4.0,4.0,3.0,-4.0,31.0,11.0,5.0,4.0,7.0,7.0,11.0,39.0,93.0,19.0,5.0,14.0,18.0,5.0,4.0,0.0,-40.0,10.0,-3.0,3
-1.0,4.0,5.0,2.0,2.0,-24.0,-28.0,-1.0,-39.0,-121.0,6.0,0.0,-15.0,-8.0,43.0,3.0,-261.0,-771.0,-5.0,0.0,-3.0,1.0,5.0,23.0,3
0.0,-2.0,-3.0,-3.0,7.0,32.0,26.0,5.0,2.0,-1.0,-6.0,-11.0,-8.0,14.0,11.0,4.0,1.0,9.0,-9.0,-14.0,-19.0,-12.0,1.0,-3.0,3
33.0,41.0,46.0,54.0,68.0,14.0,25.0,29.0,-79.0,52.0,43.0,43.0,36.0,-44.0,-10.0,18.0,-144.0,-472.0,31.0,22.0,-2.0,43.0,48.0,95.0,3
-7.0,-6.0,-7.0,-8.0,0.0,9.0,-4.0,-4.0,37.0,-25.0,-7.0,-5.0,-4.0,-13.0,-11.0,-5.0,-28.0,-20.0,-5.0,-4.0,2.0,0.0,3.0,21.0,3
-9.0,-9.0,-9.0,-11.0,-10.0,-8.0,-7.0,-8.0,40.0,-32.0,-7.0,-6.0,-14.0,-19.0,-9.0,-10.0,5.0,4.0,0.0,2.0,14.0,5.0,-15.0,-19.0,3
-12.0,-12.0,-14.0,-9.0,-14.0,-31.0,-19.0,-16.0,-10.0,-15.0,-10.0,-16.0,8.0,87.0,9.0,-5.0,-22.0,-15.0,-4.0,3.0,17.0,21.0,-8.0,-17.0,3
-8.0,-8.0,-7.0,-6.0,-3.0,-16.0,-5.0,-7.0,-8.0,-11.0,-10.0,-13.0,-15.0,-27.0,-1.0,-8.0,-26.0,-31.0,-16.0,-22.0,-50.0,-93.0,-43.0,-15.0,3
31.0,30.0,25.0,17.0,-17.0,-52.0,-26.0,16.0,81.0,-49.0,29.0,21.0,-20.0,-30.0,10.0,12.0,-77.0,-230.0,-5.0,16.0,31.0,64.0,21.0,29.0,3
3.0,4.0,4.0,10.0,23.0,33.0,12.0,1.0,1.0,8.0,3.0,7.0,26.0,39.0,7.0,10.0,22.0,23.0,-3.0,-10.0,-28.0,0.0,27.0,21.0,3
-2.0,-1.0,-2.0,-2.0,-9.0,-56.0,-26.0,-10.0,-8.0,-2.0,-4.0,-6.0,-12.0,-18.0,-28.0,-15.0,2.0,16.0,-4.0,0.0,-14.0,-41.0,-21.0,-14.0,3
-9.0,-5.0,1.0,7.0,18.0,-7.0,-11.0,-4.0,9.0,4.0,5.0,10.0,24.0,13.0,-3.0,-3.0,-3.0,8.0,8.0,7.0,1.0,-2.0,-5.0,1.0,3
12.0,1.0,0.0,0.0,0.0,14.0,6.0,-4.0,-384.0,310.0,23.0,-11.0,-22.0,-33.0,-19.0,-5.0,-111.0,-133.0,-15.0,3.0,11.0,19.0,28.0,96.0,3
-32.0,-40.0,-41.0,-41.0,-43.0,-116.0,-70.0,-49.0,-20.0,-231.0,-41.0,-41.0,-29.0,4.0,-23.0,-37.0,-2.0,-160.0,-52.0,-52.0,-52.0,-30.0,-73.0,-93.0,3
0.0,0.0,-1.0,1.0,-2.0,5.0,3.0,0.0,-13.0,-1.0,-4.0,-8.0,-8.0,-19.0,-18.0,-10.0,-23.0,-15.0,-1.0,-5.0,-16.0,-16.0,-22.0,-14.0,3
5.0,-7.0,-8.0,-10.0,-10.0,-6.0,2.0,-1.0,4.0,-20.0,-10.0,-8.0,-6.0,7.0,3.0,-5.0,7.0,14.0,-4.0,-5.0,-8.0,-23.0,-15.0,-4.0,3
-7.0,3.0,14.0,26.0,53.0,39.0,-10.0,-2.0,-23.0,28.0,17.0,25.0,48.0,35.0,35.0,8.0,-71.0,-29.0,17.0,21.0,12.0,26.0,74.0,41.0,3
-19.0,-20.0,-19.0,-16.0,0.0,3.0,-2.0,-15.0,-16.0,-13.0,-16.0,-15.0,-7.0,62.0,26.0,-1.0,-41.0,-39.0,-8.0,-8.0,-18.0,-21.0,-12.0,-1.0,3
75.0,70.0,67.0,66.0,55.0,-9.0,62.0,78.0,39.0,27.0,68.0,66.0,89.0,82.0,83.0,73.0,-280.0,-436.0,55.0,13.0,17.0,85.0,107.0,126.0,3
-81.0,-84.0,-78.0,-69.0,-59.0,-57.0,-111.0,-103.0,282.0,-240.0,-83.0,-63.0,-68.0,-102.0,-122.0,-82.0,307.0,281.0,-57.0,-52.0,-23.0,71.0,-116.0,-229.0,3
-1.0,-5.0,-9.0,-9.0,-10.0,-16.0,-11.0,-3.0,-1.0,0.0,-3.0,2.0,-5.0,29.0,6.0,1.0,-5.0,1.0,3.0,14.0,33.0,27.0,-11.0,-2.0,3
19.0,23.0,24.0,25.0,40.0,64.0,49.0,24.0,-38.0,21.0,27.0,29.0,37.0,73.0,61.0,35.0,609.0,-839.0,-73.0,16.0,21.0,28.0,73.0,78.0,3
8.0,8.0,11.0,13.0,14.0,12.0,2.0,6.0,78.0,-34.0,7.0,10.0,1.0,1.0,10.0,0.0,-18.0,-6.0,8.0,7.0,2.0,9.0,5.0,4.0,3
-90.0,-87.0,-84.0,-81.0,-78.0,-124.0,-103.0,-101.0,314.0,-110.0,-95.0,-88.0,-92.0,-73.0,-128.0,-109.0,157.0,762.0,-55.0,-77.0,-82.0,-115.0,-133.0,-196.0,3
34.0,39.0,37.0,29.0,41.0,66.0,24.0,31.0,-69.0,39.0,47.0,42.0,44.0,58.0,18.0,30.0,-155.0,-510.0,37.0,42.0,40.0,74.0,97.0,97.0,3
14.0,9.0,7.0,7.0,5.0,5.0,3.0,11.0,38.0,-14.0,9.0,6.0,12.0,25.0,27.0,12.0,-51.0,-77.0,16.0,21.0,18.0,17.0,27.0,43.0,3
-9.0,-10.0,-9.0,-4.0,1.0,-104.0,-17.0,-9.0,-4.0,-7.0,-5.0,-2.0,-13.0,8.0,-12.0,-10.0,-24.0,-11.0,-3.0,2.0,0.0,4.0,0.0,0.0,3
-26.0,-25.0,-28.0,-32.0,-26.0,-62.0,-100.0,-40.0,-50.0,-152.0,-20.0,-19.0,3.0,118.0,55.0,-3.0,-232.0,-730.0,-24.0,-28.0,-46.0,29.0,22.0,14.0,3
-32.0,-23.0,-23.0,-7.0,-2.0,6.0,-69.0,-45.0,131.0,388.0,-26.0,18.0,59.0,116.0,9.0,4.0,314.0,1319.0,16.0,41.0,128.0,184.0,44.0,-87.0,3
0.0,2.0,3.0,4.0,17.0,-5.0,-24.0,-2.0,1.0,-3.0,5.0,7.0,-5.0,27.0,11.0,-4.0,11.0,43.0,7.0,4.0,13.0,21.0,-5.0,-3.0,3
124.0,125.0,126.0,121.0,123.0,118.0,123.0,122.0,117.0,107.0,127.0,125.0,124.0,110.0,133.0,119.0,-254.0,-328.0,108.0,103.0,113.0,138.0,168.0,242.0,3
9.0,5.0,4.0,5.0,2.0,23.0,38.0,15.0,112.0,-31.0,1.0,-4.0,-15.0,-34.0,-6.0,5.0,21.0,22.0,-4.0,-7.0,-24.0,-40.0,2.0,-3.0,3
15.0,14.0,12.0,8.0,-28.0,-64.0,9.0,13.0,-17.0,19.0,8.0,1.0,-14.0,-16.0,-10.0,-10.0,-67.0,-26.0,6.0,7.0,22.0,-14.0,-19.0,0.0,3
47.0,57.0,54.0,54.0,50.0,11.0,52.0,60.0,614.0,-589.0,8.0,54.0,61.0,20.0,23.0,26.0,-74.0,-255.0,39.0,60.0,71.0,60.0,6.0,26.0,3
-42.0,-37.0,-36.0,-31.0,3.0,78.0,-49.0,-53.0,13.0,76.0,-33.0,-13.0,22.0,38.0,-6.0,-39.0,258.0,1041.0,10.0,-2.0,67.0,117.0,-11.0,-111.0,3
5.0,3.0,4.0,5.0,-15.0,-88.0,-14.0,-7.0,30.0,-4.0,5.0,9.0,23.0,66.0,-5.0,1.0,92.0,42.0,0.0,13.0,39.0,74.0,11.0,10.0,3
32.0,32.0,30.0,29.0,23.0,19.0,15.0,23.0,17.0,33.0,30.0,28.0,5.0,-26.0,-22.0,19.0,-6.0,37.0,24.0,32.0,76.0,123.0,32.0,29.0,3
30.0,34.0,35.0,40.0,42.0,27.0,9.0,28.0,-54.0,55.0,43.0,40.0,40.0,31.0,25.0,29.0,-96.0,-264.0,38.0,44.0,61.0,90.0,74.0,95.0,3
0.0,-2.0,-2.0,0.0,-3.0,-1.0,0.0,0.0,-4.0,-1.0,-1.0,-5.0,0.0,-4.0,2.0,2.0,-15.0,-30.0,5.0,5.0,3.0,6.0,9.0,19.0,3
21.0,29.0,38.0,47.0,58.0,3.0,13.0,28.0,-241.0,154.0,59.0,63.0,81.0,69.0,54.0,40.0,-53.0,-578.0,31.0,55.0,55.0,100.0,116.0,125.0,3
-6.0,0.0,0.0,-3.0,-10.0,-9.0,0.0,-3.0,-7.0,3.0,0.0,-8.0,-32.0,-105.0,-58.0,-24.0,-46.0,-49.0,-4.0,-7.0,-15.0,13.0,-5.0,-14.0,3
-38.0,-40.0,-36.0,-31.0,-27.0,-71.0,-48.0,-41.0,3.0,-167.0,-34.0,-35.0,-37.0,-45.0,-53.0,-38.0,92.0,244.0,-41.0,-40.0,-52.0,-37.0,-85.0,-124.0,3
6.0,6.0,6.0,8.0,18.0,27.0,-7.0,2.0,8.0,12.0,9.0,12.0,18.0,29.0,31.0,24.0,4.0,8.0,10.0,9.0,12.0,21.0,31.0,27.0,3
33.0,25.0,25.0,28.0,38.0,42.0,11.0,17.0,41.0,28.0,29.0,31.0,48.0,81.0,49.0,33.0,37.0,116.0,22.0,26.0,31.0,25.0,56.0,21.0,3
-7.0,-6.0,-4.0,-9.0,3.0,-31.0,-22.0,-8.0,-18.0,10.0,0.0,2.0,5.0,8.0,-7.0,-1.0,-58.0,-25.0,8.0,15.0,19.0,46.0,29.0,28.0,3
-60.0,12.0,16.0,14.0,12.0,-5.0,7.0,11.0,-760.0,501.0,46.0,18.0,13.0,24.0,13.0,6.0,-158.0,-646.0,-16.0,11.0,-3.0,42.0,145.0,279.0,3
30.0,29.0,32.0,37.0,46.0,64.0,41.0,25.0,-37.0,37.0,30.0,27.0,44.0,47.0,6.0,27.0,-107.0,-244.0,14.0,6.0,12.0,31.0,55.0,58.0,3
12.0,12.0,12.0,12.0,7.0,14.0,12.0,10.0,-7.0,22.0,10.0,9.0,-1.0,5.0,11.0,12.0,-51.0,7.0,8.0,14.0,15.0,9.0,13.0,20.0,3
10.0,11.0,11.0,10.0,10.0,10.0,10.0,10.0,4.0,7.0,14.0,16.0,12.0,4.0,12.0,10.0,-27.0,-52.0,5.0,7.0,6.0,10.0,13.0,24.0,3
44.0,23.0,19.0,18.0,28.0,24.0,17.0,8.0,485.0,-319.0,7.0,27.0,18.0,14.0,1.0,-4.0,128.0,246.0,64.0,34.0,43.0,-35.0,-217.0,-434.0,3
-12.0,-8.0,-7.0,-5.0,0.0,11.0,-22.0,-17.0,-58.0,17.0,-1.0,1.0,13.0,10.0,-1.0,-4.0,14.0,16.0,0.0,5.0,7.0,2.0,3.0,-3.0,3
-16.0,-17.0,-20.0,-25.0,-26.0,2.0,-26.0,-16.0,-33.0,-5.0,-15.0,-22.0,-30.0,-55.0,-15.0,-17.0,2.0,-7.0,-17.0,-15.0,-21.0,-15.0,-1.0,-17.0,3
1.0,1.0,0.0,0.0,11.0,24.0,5.0,3.0,-14.0,14.0,1.0,2.0,1.0,44.0,30.0,10.0,-5.0,1.0,5.0,7.0,13.0,-11.0,17.0,9.0,3
0.0,0.0,-1.0,1.0,11.0,18.0,1.0,5.0,-53.0,17.0,-1.0,0.0,7.0,27.0,27.0,7.0,-94.0,-74.0,-7.0,-4.0,-5.0,-16.0,4.0,29.0,3
8.0,5.0,4.0,9.0,21.0,92.0,46.0,18.0,-29.0,37.0,10.0,8.0,11.0,7.0,48.0,24.0,-15.0,-54.0,4.0,21.0,21.0,5.0,44.0,72.0,3
-7.0,-7.0,-8.0,-8.0,-12.0,-1.0,-4.0,-2.0,-13.0,-8.0,-9.0,-12.0,-18.0,-25.0,-10.0,-5.0,18.0,-7.0,-11.0,-10.0,1.0,4.0,-7.0,-8.0,3
17.0,18.0,17.0,16.0,20.0,17.0,19.0,18.0,-38.0,21.0,17.0,19.0,18.0,12.0,22.0,16.0,-74.0,-97.0,14.0,11.0,11.0,13.0,17.0,21.0,3
108.0,109.0,110.0,109.0,116.0,113.0,112.0,112.0,-15.0,114.0,115.0,110.0,113.0,95.0,118.0,109.0,-313.0,-417.0,98.0,106.0,111.0,140.0,190.0,275.0,3
35.0,36.0,34.0,35.0,23.0,11.0,23.0,33.0,-7.0,46.0,29.0,19.0,6.0,-28.0,-32.0,8.0,5.0,-20.0,17.0,17.0,16.0,11.0,21.0,18.0,3
20.0,17.0,19.0,23.0,31.0,31.0,16.0,7.0,17.0,-169.0,17.0,14.0,0.0,-17.0,-7.0,-18.0,10.0,-368.0,2.0,-2.0,-29.0,-35.0,-102.0,-87.0,3
-2.0,0.0,-2.0,-4.0,0.0,-18.0,-18.0,-10.0,-2.0,-19.0,-2.0,2.0,17.0,20.0,-12.0,-13.0,-15.0,-14.0,-1.0,8.0,-4.0,-3.0,16.0,41.0,3
19.0,15.0,12.0,4.0,-18.0,-29.0,40.0,27.0,13.0,18.0,9.0,-1.0,-32.0,-57.0,-4.0,13.0,-21.0,-20.0,11.0,12.0,25.0,7.0,16.0,29.0,3
152.0,153.0,155.0,158.0,153.0,149.0,153.0,156.0,72.0,128.0,155.0,156.0,157.0,142.0,160.0,154.0,-184.0,-295.0,152.0,152.0,159.0,172.0,189.0,252.0,3
19.0,7.0,-6.0,-14.0,-39.0,19.0,50.0,23.0,-4.0,-52.0,-10.0,-31.0,-87.0,-139.0,10.0,11.0,100.0,-341.0,-34.0,-35.0,-85.0,-143.0,-65.0,-60.0,3
16.0,19.0,18.0,14.0,12.0,76.0,59.0,21.0,-88.0,44.0,23.0,26.0,36.0,43.0,73.0,33.0,-144.0,-457.0,21.0,24.0,15.0,36.0,96.0,100.0,3
-1.0,-2.0,-4.0,-6.0,-8.0,-3.0,7.0,3.0,-5.0,2.0,-3.0,-5.0,-10.0,-24.0,-4.0,4.0,-1.0,1.0,-4.0,-4.0,-3.0,-5.0,-2.0,5.0,3
-4.0,-3.0,-3.0,-1.0,-2.0,-22.0,1.0,-1.0,12.0,-20.0,-6.0,-2.0,-6.0,-10.0,-8.0,-2.0,-29.0,-12.0,-3.0,-8.0,-18.0,17.0,15.0,10.0,3
-2.0,-1.0,3.0,6.0,17.0,43.0,8.0,0.0,24.0,0.0,5.0,14.0,24.0,52.0,28.0,4.0,-27.0,-45.0,10.0,18.0,44.0,25.0,22.0,3.0,3
-37.0,33.0,35.0,37.0,57.0,71.0,52.0,40.0,-741.0,527.0,67.0,41.0,52.0,32.0,30.0,40.0,-134.0,-619.0,5.0,38.0,35.0,83.0,178.0,310.0,3
37.0,37.0,36.0,38.0,49.0,63.0,39.0,43.0,-88.0,89.0,46.0,41.0,56.0,56.0,67.0,58.0,-112.0,-415.0,23.0,32.0,15.0,51.0,93.0,110.0,3
-7.0,-6.0,-8.0,-10.0,-13.0,-21.0,-21.0,-5.0,-30.0,2.0,-6.0,-6.0,-5.0,4.0,-6.0,-6.0,0.0,-22.0,-4.0,-3.0,5.0,7.0,-3.0,1.0,3
-18.0,-16.0,-13.0,-10.0,-9.0,-37.0,-54.0,-26.0,6.0,-18.0,-11.0,-3.0,21.0,70.0,-11.0,-12.0,29.0,20.0,-5.0,-2.0,-15.0,12.0,8.0,5.0,3
33.0,27.0,26.0,25.0,17.0,12.0,20.0,24.0,37.0,21.0,24.0,28.0,29.0,35.0,18.0,28.0,127.0,69.0,12.0,25.0,35.0,34.0,23.0,15.0,3
-3.0,-2.0,-2.0,-5.0,-4.0,8.0,-17.0,1.0,-26.0,22.0,5.0,8.0,7.0,10.0,17.0,9.0,-57.0,-30.0,3.0,13.0,33.0,57.0,45.0,40.0,3
40.0,43.0,46.0,50.0,64.0,92.0,66.0,43.0,-13.0,63.0,51.0,57.0,91.0,142.0,74.0,51.0,-101.0,-318.0,42.0,39.0,19.0,29.0,74.0,82.0,3
-7.0,-5.0,-4.0,-2.0,0.0,-42.0,-15.0,-9.0,-11.0,-3.0,-4.0,0.0,19.0,38.0,-12.0,-10.0,1.0,13.0,-4.0,0.0,-8.0,-18.0,-28.0,-9.0,3
18.0,16.0,15.0,16.0,27.0,35.0,17.0,20.0,0.0,29.0,17.0,16.0,18.0,14.0,17.0,19.0,2.0,10.0,14.0,13.0,14.0,18.0,17.0,8.0,3
2.0,-1.0,-6.0,-10.0,-13.0,-1.0,3.0,2.0,3.0,-2.0,-2.0,-4.0,-3.0,-17.0,-2.0,3.0,2.0,27.0,-3.0,-4.0,-3.0,6.0,9.0,7.0,3
7.0,8.0,7.0,9.0,9.0,7.0,11.0,8.0,47.0,-16.0,3.0,2.0,5.0,1.0,13.0,10.0,16.0,16.0,2.0,1.0,-5.0,-8.0,-3.0,-9.0,3
7.0,6.0,5.0,8.0,8.0,-2.0,12.0,5.0,-5.0,10.0,1.0,-1.0,-22.0,-76.0,-11.0,2.0,2.0,13.0,2.0,-1.0,-2.0,15.0,-1.0,-2.0,3
19.0,19.0,17.0,11.0,-23.0,-65.0,-13.0,17.0,-32.0,35.0,15.0,-1.0,-29.0,-127.0,-56.0,3.0,-74.0,-45.0,12.0,6.0,-9.0,35.0,43.0,48.0,3
-13.0,-11.0,-11.0,-11.0,-13.0,-23.0,-24.0,-13.0,40.0,-28.0,-12.0,-10.0,-6.0,-1.0,5.0,-7.0,4.0,53.0,-5.0,-2.0,-1.0,-7.0,4.0,5.0,3
-11.0,-5.0,0.0,3.0,2.0,15.0,-22.0,-14.0,-41.0,10.0,1.0,7.0,30.0,45.0,-33.0,-12.0,37.0,-51.0,-1.0,7.0,39.0,71.0,11.0,5.0,3
-8.0,-3.0,0.0,6.0,17.0,0.0,-18.0,-10.0,-20.0,8.0,5.0,10.0,11.0,3.0,9.0,8.0,30.0,37.0,1.0,11.0,17.0,69.0,31.0,23.0,3
12.0,12.0,12.0,13.0,13.0,11.0,5.0,11.0,4.0,13.0,13.0,14.0,8.0,-15.0,-2.0,8.0,15.0,10.0,13.0,16.0,20.0,13.0,11.0,10.0,3
-6.0,-5.0,-5.0,-5.0,-3.0,-12.0,-16.0,-11.0,-1.0,-8.0,-6.0,-4.0,-1.0,14.0,-8.0,-4.0,-24.0,-20.0,-3.0,1.0,8.0,14.0,8.0,-14.0,3
6.0,6.0,6.0,8.0,23.0,37.0,33.0,18.0,-31.0,-10.0,17.0,5.0,19.0,22.0,54.0,25.0,-130.0,-517.0,12.0,12.0,-15.0,-24.0,42.0,64.0,3
19.0,20.0,17.0,12.0,20.0,47.0,45.0,32.0,-65.0,4.0,17.0,6.0,-2.0,39.0,43.0,27.0,-17.0,-560.0,-28.0,-2.0,-32.0,-72.0,19.0,85.0,3
30.0,31.0,28.0,20.0,6.0,-44.0,23.0,22.0,47.0,17.0,23.0,21.0,20.0,27.0,16.0,9.0,25.0,31.0,13.0,9.0,7.0,-28.0,-39.0,-39.0,3
79.0,71.0,72.0,70.0,74.0,82.0,74.0,76.0,-67.0,106.0,76.0,68.0,71.0,78.0,72.0,72.0,-123.0,-384.0,59.0,72.0,77.0,95.0,118.0,147.0,3
-8.0,-12.0,-10.0,-9.0,-7.0,-12.0,-13.0,-13.0,6.0,-15.0,-9.0,-6.0,-1.0,4.0,-3.0,-1.0,15.0,19.0,-2.0,-1.0,9.0,10.0,3.0,-8.0,3
27.0,29.0,33.0,43.0,64.0,65.0,8.0,21.0,32.0,32.0,37.0,54.0,84.0,145.0,68.0,41.0,25.0,26.0,29.0,39.0,56.0,50.0,36.0,47.0,3
-2.0,-2.0,-4.0,-7.0,-17.0,-47.0,-35.0,-9.0,-4.0,-4.0,-4.0,-3.0,5.0,38.0,17.0,-2.0,59.0,14.0,-4.0,5.0,21.0,48.0,31.0,-4.0,3
38.0,41.0,39.0,35.0,15.0,-34.0,20.0,29.0,-130.0,80.0,49.0,36.0,28.0,33.0,-6.0,21.0,-204.0,-445.0,25.0,31.0,54.0,112.0,50.0,52.0,3
59.0,59.0,61.0,66.0,64.0,59.0,60.0,61.0,-55.0,84.0,61.0,62.0,66.0,63.0,61.0,59.0,-15.0,-151.0,52.0,61.0,63.0,70.0,81.0,119.0,3
-30.0,-28.0,-26.0,-30.0,-23.0,24.0,-1.0,-17.0,-26.0,-11.0,-19.0,-19.0,-4.0,7.0,0.0,-3.0,-63.0,-31.0,-11.0,-11.0,-18.0,-7.0,28.0,17.0,3
16.0,16.0,15.0,14.0,7.0,25.0,5.0,10.0,50.0,-5.0,14.0,21.0,30.0,10.0,-6.0,8.0,26.0,35.0,13.0,13.0,19.0,29.0,-14.0,-21.0,3
8.0,8.0,8.0,9.0,2.0,-19.0,0.0,9.0,19.0,-2.0,5.0,5.0,-5.0,-11.0,-8.0,8.0,-18.0,-24.0,1.0,3.0,12.0,51.0,27.0,45.0,3
17.0,17.0,17.0,19.0,21.0,17.0,17.0,14.0,-29.0,23.0,15.0,19.0,27.0,25.0,22.0,21.0,10.0,0.0,12.0,16.0,25.0,29.0,16.0,15.0,3
8.0,6.0,8.0,7.0,0.0,-7.0,3.0,4.0,-1.0,12.0,5.0,2.0,-13.0,-44.0,2.0,2.0,3.0,16.0,6.0,6.0,10.0,6.0,-2.0,0.0,3
25.0,33.0,33.0,37.0,44.0,33.0,16.0,24.0,-44.0,10.0,33.0,32.0,38.0,25.0,29.0,28.0,-61.0,-342.0,19.0,18.0,-19.0,-33.0,37.0,80.0,3
-49.0,-68.0,-71.0,-66.0,-44.0,15.0,-49.0,-57.0,-40.0,-138.0,-66.0,-69.0,-70.0,-66.0,-69.0,-67.0,125.0,542.0,-69.0,-76.0,-99.0,-163.0,-184.0,-192.0,3
-1.0,-4.0,-4.0,-6.0,-3.0,58.0,9.0,2.0,-28.0,10.0,0.0,4.0,22.0,35.0,8.0,8.0,72.0,-44.0,1.0,9.0,23.0,42.0,52.0,27.0,3
-60.0,-60.0,-59.0,-57.0,-57.0,-33.0,-38.0,-53.0,-6.0,87.0,-74.0,-58.0,-47.0,-88.0,-54.0,-23.0,556.0,1217.0,-62.0,-60.0,-50.0,-65.0,-123.0,-210.0,3
2.0,1.0,0.0,1.0,10.0,57.0,14.0,3.0,-11.0,2.0,-1.0,-4.0,-11.0,5.0,12.0,0.0,-54.0,-31.0,-1.0,-7.0,-11.0,-30.0,-1.0,-3.0,3
3.0,0.0,-3.0,-10.0,-35.0,-56.0,-16.0,5.0,10.0,-8.0,-7.0,-19.0,-30.0,-56.0,3.0,5.0,-461.0,235.0,47.0,-16.0,-45.0,-65.0,21.0,47.0,3
9.0,16.0,18.0,19.0,16.0,46.0,54.0,29.0,-13.0,28.0,21.0,15.0,-1.0,-46.0,13.0,13.0,-90.0,-188.0,13.0,14.0,27.0,2.0,25.0,56.0,3
5.0,3.0,3.0,4.0,21.0,30.0,16.0,3.0,-16.0,17.0,8.0,10.0,24.0,65.0,20.0,14.0,101.0,-3.0,-1.0,8.0,13.0,34.0,14.0,-7.0,3
-20.0,-19.0,-17.0,-14.0,-16.0,-33.0,-37.0,-27.0,-6.0,-14.0,-15.0,-12.0,-4.0,-14.0,-19.0,-18.0,-18.0,21.0,-16.0,-18.0,-26.0,-5.0,-6.0,-12.0,3
20.0,19.0,19.0,21.0,35.0,13.0,41.0,29.0,9.0,17.0,14.0,14.0,44.0,-12.0,-2.0,14.0,-26.0,-78.0,5.0,-15.0,-52.0,-62.0,-28.0,10.0,3
7.0,5.0,5.0,5.0,-2.0,-43.0,-9.0,-6.0,26.0,0.0,9.0,15.0,35.0,45.0,28.0,5.0,84.0,38.0,0.0,7.0,2.0,-18.0,-11.0,-8.0,3
63.0,25.0,24.0,25.0,35.0,46.0,25.0,8.0,521.0,-270.0,15.0,24.0,29.0,41.0,34.0,25.0,217.0,396.0,89.0,28.0,25.0,-68.0,-261.0,-531.0,3
22.0,23.0,25.0,33.0,68.0,96.0,29.0,12.0,-152.0,76.0,40.0,38.0,62.0,129.0,58.0,28.0,-172.0,-443.0,23.0,32.0,35.0,68.0,54.0,68.0,3
6.0,7.0,7.0,9.0,12.0,10.0,3.0,2.0,-7.0,9.0,6.0,8.0,11.0,7.0,-7.0,0.0,1.0,-5.0,2.0,2.0,6.0,28.0,2.0,-8.0,3
26.0,18.0,14.0,10.0,-3.0,-7.0,-45.0,7.0,12.0,-11.0,9.0,1.0,3.0,-18.0,0.0,6.0,-39.0,-16.0,9.0,11.0,10.0,32.0,48.0,37.0,3
-12.0,-19.0,-23.0,-28.0,-54.0,-33.0,-22.0,-20.0,24.0,-35.0,-23.0,-29.0,-28.0,16.0,-24.0,-22.0,-1.0,8.0,-13.0,-11.0,2.0,-13.0,-33.0,-41.0,3
-1.0,-3.0,-5.0,-9.0,0.0,19.0,-7.0,-4.0,-1.0,-4.0,0.0,0.0,0.0,-3.0,10.0,0.0,-17.0,-28.0,-3.0,-2.0,-18.0,10.0,31.0,40.0,3
20.0,19.0,16.0,7.0,-26.0,-128.0,-18.0,8.0,-4.0,17.0,10.0,1.0,1.0,-16.0,5.0,-1.0,-372.0,261.0,56.0,2.0,-33.0,-36.0,32.0,58.0,3
1.0,12.0,15.0,19.0,19.0,27.0,23.0,13.0,-55.0,16.0,17.0,16.0,21.0,39.0,19.0,2.0,-41.0,-244.0,9.0,10.0,8.0,-10.0,-2.0,38.0,3
12.0,8.0,5.0,5.0,11.0,7.0,-1.0,10.0,-5.0,6.0,8.0,9.0,2.0,11.0,27.0,13.0,22.0,-2.0,3.0,5.0,21.0,37.0,28.0,19.0,3
0.0,0.0,1.0,-2.0,-2.0,5.0,-11.0,-1.0,-24.0,9.0,0.0,-2.0,-8.0,-27.0,-5.0,2.0,12.0,-1.0,-2.0,-1.0,0.0,14.0,2.0,-5.0,3
32.0,39.0,33.0,29.0,20.0,48.0,45.0,40.0,703.0,-657.0,-10.0,31.0,16.0,-30.0,33.0,34.0,-67.0,-214.0,29.0,39.0,48.0,-24.0,-11.0,-4.0,3
-4.0,33.0,37.0,37.0,36.0,63.0,46.0,38.0,333.0,-440.0,-2.0,38.0,33.0,8.0,35.0,28.0,-151.0,-714.0,5.0,33.0,53.0,80.0,136.0,248.0,3
11.0,10.0,9.0,8.0,8.0,29.0,3.0,3.0,25.0,-8.0,8.0,7.0,5.0,-10.0,1.0,4.0,-23.0,-29.0,-1.0,2.0,8.0,29.0,18.0,36.0,3
-16.0,26.0,29.0,35.0,42.0,31.0,14.0,23.0,152.0,-295.0,2.0,41.0,59.0,76.0,45.0,25.0,-132.0,-701.0,19.0,49.0,45.0,104.0,183.0,274.0,3
25.0,23.0,20.0,13.0,-6.0,-11.0,22.0,31.0,-41.0,20.0,18.0,12.0,-3.0,-33.0,13.0,27.0,-113.0,-308.0,9.0,2.0,1.0,3.0,15.0,74.0,3
-10.0,-12.0,-14.0,-14.0,-11.0,-21.0,-18.0,-10.0,3.0,-18.0,-11.0,-17.0,-15.0,-26.0,-12.0,-7.0,1.0,-3.0,-8.0,-14.0,-28.0,-17.0,-10.0,-17.0,3
-100.0,-96.0,-89.0,-89.0,-94.0,6.0,-40.0,-96.0,42.0,-158.0,-80.0,-80.0,-30.0,-22.0,-107.0,-115.0,145.0,-82.0,-78.0,-75.0,-129.0,-117.0,-174.0,-235.0,3
33.0,32.0,28.0,24.0,16.0,-15.0,25.0,28.0,16.0,29.0,25.0,22.0,16.0,23.0,7.0,15.0,-11.0,9.0,14.0,9.0,10.0,19.0,-1.0,1.0,3
56.0,61.0,64.0,68.0,74.0,53.0,44.0,51.0,-4.0,60.0,64.0,68.0,90.0,109.0,46.0,50.0,-62.0,-237.0,54.0,55.0,61.0,95.0,73.0,104.0,3
-3.0,-7.0,-8.0,1.0,4.0,-27.0,-30.0,-16.0,163.0,-97.0,0.0,8.0,20.0,9.0,-29.0,1.0,180.0,77.0,-17.0,14.0,45.0,79.0,-32.0,-84.0,3
3.0,4.0,5.0,4.0,6.0,4.0,5.0,3.0,7.0,1.0,6.0,7.0,-8.0,-45.0,-12.0,-4.0,11.0,19.0,4.0,3.0,1.0,-6.0,-24.0,-9.0,3
13.0,15.0,18.0,19.0,39.0,10.0,-8.0,-2.0,-37.0,35.0,17.0,21.0,25.0,-35.0,-15.0,-4.0,-16.0,-66.0,1.0,4.0,-35.0,14.0,24.0,43.0,3
25.0,34.0,37.0,37.0,39.0,54.0,36.0,31.0,-96.0,86.0,46.0,41.0,57.0,56.0,53.0,40.0,-119.0,-431.0,23.0,33.0,46.0,55.0,64.0,91.0,3
23.0,20.0,17.0,20.0,27.0,10.0,23.0,24.0,45.0,7.0,16.0,18.0,20.0,17.0,12.0,14.0,5.0,52.0,15.0,7.0,-6.0,-10.0,18.0,-2.0,3
7.0,0.0,-1.0,-2.0,6.0,0.0,-9.0,-1.0,-31.0,7.0,1.0,8.0,18.0,37.0,13.0,2.0,17.0,10.0,6.0,11.0,29.0,53.0,17.0,16.0,3
28.0,34.0,38.0,39.0,46.0,14.0,29.0,35.0,1.0,11.0,47.0,59.0,86.0,142.0,42.0,39.0,-295.0,-477.0,50.0,58.0,96.0,95.0,85.0,108.0,3
7.0,7.0,7.0,8.0,10.0,13.0,5.0,9.0,2.0,5.0,3.0,4.0,2.0,14.0,10.0,7.0,1.0,-3.0,5.0,5.0,25.0,40.0,11.0,10.0,3
13.0,12.0,13.0,17.0,14.0,22.0,16.0,13.0,31.0,7.0,11.0,14.0,12.0,29.0,19.0,14.0,21.0,31.0,13.0,16.0,31.0,-16.0,7.0,-3.0,3
-9.0,-7.0,-3.0,0.0,10.0,19.0,-9.0,-10.0,3.0,1.0,-2.0,2.0,11.0,-2.0,-9.0,3.0,27.0,19.0,3.0,8.0,5.0,23.0,19.0,14.0,3
20.0,28.0,27.0,29.0,51.0,87.0,24.0,21.0,-50.0,-61.0,40.0,40.0,63.0,92.0,52.0,33.0,-147.0,-507.0,25.0,35.0,42.0,133.0,88.0,106.0,3
-2.0,-1.0,-1.0,-5.0,-7.0,-16.0,1.0,-1.0,2.0,1.0,0.0,4.0,6.0,24.0,-4.0,2.0,19.0,17.0,2.0,6.0,6.0,16.0,17.0,14.0,3
7.0,4.0,6.0,11.0,20.0,40.0,20.0,6.0,6.0,15.0,11.0,16.0,40.0,82.0,31.0,17.0,4.0,4.0,8.0,15.0,34.0,10.0,10.0,13.0,3
10.0,8.0,9.0,8.0,10.0,9.0,0.0,8.0,-32.0,32.0,8.0,4.0,-8.0,15.0,17.0,11.0,-39.0,-53.0,-6.0,4.0,-3.0,-32.0,22.0,56.0,3
-3.0,-4.0,-5.0,-7.0,-15.0,-31.0,-4.0,-4.0,-3.0,-4.0,-6.0,-7.0,-11.0,-11.0,-26.0,-17.0,-12.0,-7.0,-8.0,-6.0,-13.0,-25.0,-17.0,-17.0,3
-72.0,-87.0,-96.0,-96.0,-75.0,-18.0,-88.0,-92.0,45.0,44.0,-97.0,-87.0,-78.0,0.0,-40.0,-72.0,85.0,672.0,-64.0,-75.0,-58.0,-56.0,-65.0,-77.0,3
80.0,54.0,58.0,55.0,69.0,70.0,31.0,39.0,527.0,-271.0,45.0,62.0,46.0,43.0,71.0,47.0,204.0,337.0,102.0,53.0,87.0,22.0,-178.0,-409.0,3
15.0,14.0,15.0,17.0,16.0,7.0,18.0,17.0,29.0,13.0,17.0,23.0,24.0,31.0,17.0,17.0,24.0,29.0,11.0,17.0,21.0,21.0,17.0,16.0,3
1.0,-2.0,-6.0,-3.0,-8.0,-27.0,-15.0,-7.0,8.0,-18.0,-13.0,-16.0,7.0,14.0,8.0,0.0,-11.0,-39.0,-13.0,-9.0,-11.0,13.0,17.0,29.0,3
11.0,10.0,8.0,10.0,11.0,10.0,14.0,10.0,-7.0,17.0,8.0,6.0,11.0,17.0,4.0,12.0,-1.0,4.0,5.0,4.0,0.0,17.0,10.0,0.0,3
-2.0,-4.0,-6.0,-12.0,4.0,14.0,-12.0,-4.0,-20.0,14.0,0.0,0.0,16.0,40.0,5.0,0.0,-64.0,-1.0,2.0,7.0,10.0,13.0,12.0,24.0,3
75.0,80.0,78.0,78.0,83.0,56.0,72.0,71.0,-10.0,109.0,83.0,84.0,98.0,103.0,76.0,70.0,-24.0,-194.0,58.0,64.0,31.0,60.0,100.0,126.0,3
-4.0,-8.0,-4.0,2.0,1.0,-1.0,-2.0,-3.0,106.0,-37.0,-6.0,0.0,1.0,-3.0,-5.0,-6.0,-7.0,-35.0,0.0,5.0,3.0,-2.0,-2.0,0.0,3
-17.0,-25.0,-25.0,-27.0,-22.0,-5.0,-40.0,-32.0,20.0,-53.0,-24.0,-16.0,-16.0,29.0,-14.0,-19.0,12.0,51.0,-17.0,-24.0,-32.0,-9.0,-19.0,-64.0,3
2.0,-7.0,-10.0,-6.0,1.0,14.0,-7.0,-8.0,16.0,-34.0,-7.0,-1.0,7.0,20.0,15.0,-1.0,14.0,52.0,3.0,1.0,1.0,-20.0,-17.0,-36.0,3
-96.0,-103.0,-100.0,-93.0,-61.0,-7.0,-120.0,-104.0,102.0,-128.0,-95.0,-92.0,-95.0,-58.0,-123.0,-100.0,98.0,232.0,-65.0,-97.0,-129.0,-170.0,-218.0,-275.0,3
46.0,52.0,52.0,51.0,37.0,4.0,-5.0,32.0,-4.0,27.0,53.0,50.0,69.0,75.0,51.0,39.0,-120.0,-519.0,44.0,46.0,28.0,86.0,95.0,105.0,3
7.0,9.0,6.0,10.0,6.0,-59.0,-12.0,6.0,-70.0,39.0,10.0,3.0,11.0,81.0,28.0,19.0,-61.0,-214.0,9.0,25.0,36.0,41.0,61.0,86.0,3
5.0,4.0,5.0,9.0,8.0,17.0,19.0,11.0,11.0,-3.0,4.0,5.0,-4.0,-44.0,-10.0,6.0,23.0,31.0,4.0,9.0,21.0,15.0,-4.0,0.0,3
1.0,-3.0,-7.0,-18.0,-54.0,-32.0,25.0,5.0,-6.0,0.0,-10.0,-20.0,-40.0,-64.0,-6.0,4.0,6.0,55.0,-14.0,-23.0,-37.0,-104.0,-35.0,-16.0,3
-9.0,-9.0,-8.0,-7.0,-12.0,-10.0,-10.0,-8.0,-12.0,-10.0,-10.0,-12.0,-10.0,-15.0,-8.0,-7.0,-22.0,-41.0,-4.0,-4.0,-5.0,-2.0,3.0,12.0,3
25.0,25.0,23.0,17.0,-18.0,-46.0,-4.0,25.0,-27.0,41.0,20.0,2.0,-32.0,-130.0,-50.0,8.0,-69.0,-41.0,15.0,7.0,-12.0,25.0,39.0,52.0,3
0.0,4.0,7.0,10.0,23.0,43.0,14.0,5.0,-14.0,18.0,9.0,13.0,12.0,17.0,11.0,9.0,24.0,13.0,5.0,8.0,18.0,32.0,4.0,3.0,3
5.0,7.0,7.0,6.0,4.0,18.0,6.0,4.0,13.0,-5.0,3.0,2.0,-5.0,-23.0,-25.0,-13.0,19.0,4.0,-4.0,-7.0,-21.0,-6.0,-14.0,-30.0,3
-39.0,-37.0,-37.0,-32.0,-16.0,13.0,-74.0,-44.0,-20.0,-39.0,-32.0,-22.0,-4.0,74.0,-3.0,-22.0,-51.0,-89.0,-19.0,-14.0,-19.0,12.0,10.0,-3.0,3
-20.0,-24.0,-25.0,-15.0,12.0,10.0,-53.0,-34.0,276.0,-178.0,-30.0,-7.0,17.0,100.0,57.0,1.0,359.0,285.0,-19.0,-6.0,25.0,43.0,-33.0,-171.0,3
-5.0,-3.0,0.0,1.0,0.0,-20.0,4.0,-4.0,-61.0,31.0,4.0,2.0,29.0,21.0,3.0,1.0,-39.0,-150.0,2.0,11.0,6.0,14.0,54.0,52.0,3
-19.0,-20.0,-22.0,-23.0,-25.0,-24.0,-23.0,-24.0,-12.0,-32.0,-23.0,-24.0,-28.0,-24.0,-23.0,-20.0,-3.0,2.0,-19.0,-21.0,-18.0,-18.0,-27.0,-29.0,3
-1.0,2.0,5.0,7.0,19.0,31.0,14.0,8.0,2.0,7.0,4.0,9.0,12.0,38.0,39.0,17.0,7.0,27.0,7.0,10.0,18.0,14.0,10.0,10.0,3
14.0,16.0,19.0,25.0,35.0,29.0,6.0,10.0,38.0,8.0,21.0,31.0,34.0,49.0,19.0,16.0,-1.0,8.0,16.0,21.0,41.0,62.0,29.0,20.0,3
124.0,124.0,125.0,136.0,135.0,132.0,130.0,130.0,109.0,88.0,128.0,120.0,133.0,115.0,146.0,132.0,-163.0,-267.0,130.0,127.0,133.0,141.0,155.0,190.0,3
30.0,26.0,23.0,14.0,-4.0,20.0,76.0,34.0,7.0,-130.0,15.0,-4.0,-41.0,-82.0,-7.0,4.0,-144.0,-582.0,-5.0,-23.0,-55.0,-125.0,-60.0,-61.0,3
10.0,3.0,-5.0,-14.0,-22.0,6.0,29.0,20.0,58.0,-24.0,-7.0,-17.0,-42.0,-87.0,10.0,15.0,14.0,-9.0,-4.0,-14.0,-35.0,-99.0,-28.0,-6.0,3
-4.0,-4.0,-7.0,-8.0,-6.0,-7.0,-8.0,-3.0,-15.0,-6.0,-3.0,-6.0,-3.0,-5.0,1.0,0.0,-60.0,-77.0,2.0,4.0,3.0,7.0,12.0,27.0,3
-16.0,-15.0,-16.0,-17.0,-22.0,-53.0,-44.0,-24.0,-17.0,-10.0,-12.0,-9.0,6.0,29.0,-6.0,-17.0,-8.0,-5.0,-11.0,-11.0,-18.0,-3.0,10.0,4.0,3
21.0,23.0,22.0,25.0,24.0,-27.0,-4.0,12.0,12.0,9.0,20.0,28.0,52.0,110.0,41.0,16.0,24.0,47.0,15.0,21.0,13.0,25.0,25.0,14.0,3
-7.0,0.0,0.0,0.0,-1.0,8.0,11.0,9.0,47.0,-30.0,-5.0,-8.0,-14.0,-29.0,0.0,10.0,-10.0,-18.0,-7.0,-7.0,-14.0,0.0,19.0,28.0,3
-51.0,-58.0,-60.0,-62.0,-50.0,84.0,25.0,-37.0,-23.0,-221.0,-49.0,-44.0,-16.0,25.0,18.0,-22.0,12.0,-63.0,-56.0,-51.0,-57.0,-148.0,-124.0,-120.0,3
27.0,37.0,38.0,39.0,48.0,20.0,19.0,27.0,-45.0,-25.0,46.0,42.0,49.0,81.0,64.0,27.0,-291.0,-714.0,23.0,35.0,59.0,88.0,70.0,96.0,3
25.0,18.0,18.0,22.0,31.0,88.0,70.0,42.0,58.0,-4.0,19.0,20.0,13.0,43.0,54.0,38.0,-63.0,-93.0,13.0,14.0,30.0,23.0,34.0,49.0,3
-52.0,-55.0,-58.0,-58.0,-64.0,-54.0,-45.0,-49.0,357.0,-220.0,-72.0,-61.0,-103.0,-167.0,-91.0,-69.0,293.0,346.0,-50.0,-57.0,-65.0,-84.0,-148.0,-217.0,3
95.0,92.0,91.0,86.0,96.0,98.0,95.0,97.0,-52.0,105.0,100.0,101.0,102.0,89.0,102.0,96.0,-191.0,-396.0,94.0,100.0,108.0,136.0,181.0,256.0,3
14.0,11.0,9.0,9.0,9.0,-1.0,11.0,17.0,21.0,4.0,6.0,0.0,-2.0,-4.0,15.0,16.0,6.0,8.0,7.0,1.0,-20.0,-29.0,5.0,16.0,3
0.0,1.0,3.0,3.0,1.0,11.0,-11.0,-2.0,-13.0,6.0,3.0,0.0,-4.0,-22.0,-17.0,-9.0,5.0,-1.0,3.0,3.0,-4.0,2.0,5.0,-3.0,3
-12.0,-14.0,-14.0,-17.0,-17.0,-9.0,-10.0,-11.0,-32.0,4.0,-10.0,-7.0,-8.0,-8.0,-10.0,-11.0,-77.0,-15.0,-8.0,-4.0,-10.0,-13.0,5.0,25.0,3
6.0,6.0,4.0,-1.0,-10.0,-45.0,-1.0,4.0,14.0,-4.0,2.0,0.0,-7.0,3.0,-9.0,-2.0,0.0,-1.0,-2.0,-2.0,-1.0,-15.0,-9.0,-6.0,3
-14.0,-15.0,-17.0,-20.0,-30.0,-49.0,-26.0,-15.0,1.0,-16.0,-14.0,-15.0,-10.0,40.0,-6.0,-2.0,-3.0,7.0,-9.0,-6.0,0.0,22.0,1.0,-2.0,3
7.0,4.0,3.0,-2.0,0.0,3.0,3.0,3.0,132.0,-22.0,2.0,-1.0,2.0,16.0,12.0,6.0,43.0,-22.0,10.0,10.0,18.0,20.0,8.0,9.0,3
-24.0,21.0,25.0,26.0,24.0,-7.0,18.0,20.0,436.0,-548.0,-18.0,22.0,9.0,-4.0,25.0,7.0,-160.0,-711.0,-8.0,18.0,25.0,45.0,100.0,211.0,3
-30.0,-43.0,-49.0,-53.0,-45.0,-36.0,5.0,-33.0,-3.0,-14.0,-57.0,-45.0,-44.0,23.0,-15.0,-2.0,833.0,767.0,-59.0,-35.0,-30.0,-119.0,-141.0,-221.0,3
-4.0,-3.0,-2.0,0.0,8.0,-11.0,-18.0,-8.0,3.0,-9.0,-4.0,4.0,8.0,42.0,4.0,-8.0,-29.0,-10.0,-3.0,-5.0,-7.0,-11.0,-14.0,-13.0,3
-7.0,-9.0,-12.0,-14.0,-17.0,-30.0,8.0,-4.0,-12.0,0.0,-6.0,-5.0,-4.0,-13.0,-10.0,-4.0,3.0,7.0,3.0,8.0,16.0,25.0,19.0,15.0,3
13.0,10.0,6.0,-2.0,-18.0,-1.0,4.0,15.0,-1.0,14.0,6.0,-1.0,-7.0,1.0,17.0,14.0,12.0,23.0,3.0,-1.0,-3.0,-43.0,-13.0,7.0,3
21.0,21.0,20.0,21.0,21.0,6.0,16.0,18.0,10.0,21.0,19.0,20.0,16.0,5.0,10.0,15.0,3.0,-4.0,5.0,6.0,7.0,7.0,6.0,6.0,3
49.0,50.0,49.0,51.0,52.0,65.0,75.0,60.0,-46.0,78.0,48.0,44.0,35.0,62.0,72.0,51.0,-89.0,-304.0,31.0,28.0,31.0,-2.0,34.0,88.0,3
0.0,-5.0,-10.0,-12.0,4.0,96.0,64.0,14.0,-7.0,0.0,-7.0,-6.0,-22.0,-68.0,5.0,6.0,23.0,19.0,-10.0,-8.0,-18.0,-20.0,11.0,-6.0,3
-16.0,-35.0,-39.0,-37.0,-19.0,31.0,23.0,-26.0,-47.0,-3.0,-33.0,-35.0,-16.0,-47.0,-31.0,-28.0,-25.0,39.0,-33.0,-45.0,-92.0,-124.0,-35.0,-29.0,3
-6.0,-10.0,-15.0,-21.0,-10.0,36.0,27.0,3.0,-14.0,-7.0,-15.0,-20.0,-35.0,-62.0,-4.0,-4.0,-11.0,-9.0,-18.0,-24.0,-43.0,-96.0,-35.0,-9.0,3
69.0,64.0,65.0,64.0,66.0,68.0,65.0,66.0,-190.0,104.0,67.0,61.0,65.0,73.0,64.0,63.0,-45.0,-318.0,51.0,55.0,66.0,88.0,118.0,168.0,3
13.0,17.0,16.0,13.0,25.0,112.0,48.0,18.0,-21.0,-23.0,23.0,14.0,24.0,4.0,8.0,1.0,32.0,-411.0,3.0,18.0,23.0,27.0,10.0,-23.0,3
-2.0,-4.0,-6.0,-8.0,-4.0,-20.0,-7.0,2.0,-31.0,17.0,-1.0,-1.0,1.0,46.0,-4.0,7.0,-59.0,-33.0,-2.0,2.0,3.0,12.0,23.0,43.0,3
17.0,3.0,3.0,3.0,-3.0,-65.0,-8.0,3.0,-524.0,413.0,35.0,1.0,-11.0,-15.0,5.0,7.0,-60.0,-155.0,-12.0,4.0,-2.0,42.0,91.0,140.0,3
-2.0,-2.0,-3.0,-7.0,-10.0,-52.0,-14.0,-2.0,-10.0,1.0,1.0,-2.0,-1.0,5.0,-2.0,3.0,-5.0,-3.0,1.0,0.0,-4.0,15.0,23.0,5.0,3
-18.0,-17.0,-17.0,-20.0,-29.0,4.0,-18.0,-17.0,-30.0,-12.0,-17.0,-24.0,-33.0,-83.0,-2.0,-13.0,67.0,-36.0,-22.0,-16.0,-18.0,11.0,-13.0,-12.0,3
30.0,25.0,22.0,24.0,33.0,51.0,17.0,19.0,50.0,23.0,25.0,25.0,26.0,17.0,15.0,20.0,3.0,15.0,24.0,23.0,21.0,38.0,32.0,22.0,3
29.0,1.0,-3.0,-7.0,-17.0,1.0,8.0,-8.0,471.0,-151.0,-6.0,-15.0,-41.0,-159.0,-89.0,-22.0,48.0,346.0,16.0,-17.0,-39.0,-69.0,-144.0,-268.0,3
7.0,10.0,8.0,4.0,-8.0,-50.0,12.0,10.0,-14.0,21.0,7.0,4.0,4.0,-9.0,1.0,6.0,51.0,-22.0,7.0,7.0,7.0,26.0,23.0,23.0,3
34.0,29.0,28.0,27.0,33.0,44.0,56.0,45.0,-50.0,47.0,31.0,26.0,13.0,29.0,29.0,27.0,-114.0,-318.0,24.0,37.0,38.0,13.0,43.0,81.0,3
6.0,6.0,7.0,7.0,22.0,58.0,63.0,26.0,-34.0,27.0,11.0,11.0,-3.0,-43.0,34.0,22.0,-41.0,-211.0,11.0,4.0,-13.0,-53.0,25.0,41.0,3
5.0,3.0,3.0,4.0,9.0,8.0,6.0,4.0,-6.0,11.0,5.0,6.0,16.0,34.0,16.0,10.0,16.0,25.0,11.0,13.0,18.0,18.0,8.0,-9.0,3
24.0,21.0,19.0,23.0,23.0,34.0,32.0,27.0,15.0,16.0,18.0,20.0,20.0,14.0,-11.0,9.0,-15.0,-2.0,12.0,14.0,17.0,18.0,17.0,20.0,3
-6.0,-4.0,-5.0,-7.0,-5.0,-7.0,-5.0,-4.0,-59.0,7.0,-3.0,-2.0,-5.0,-8.0,-5.0,-5.0,-32.0,-43.0,1.0,1.0,-2.0,-2.0,-1.0,7.0,3
96.0,94.0,97.0,101.0,97.0,93.0,90.0,94.0,-146.0,172.0,103.0,100.0,96.0,103.0,88.0,84.0,-66.0,-394.0,78.0,91.0,96.0,114.0,138.0,192.0,3
16.0,16.0,14.0,12.0,-3.0,35.0,48.0,25.0,-44.0,28.0,18.0,17.0,17.0,-33.0,27.0,18.0,-73.0,-148.0,12.0,17.0,17.0,-18.0,20.0,55.0,3
-24.0,-24.0,-20.0,-18.0,-13.0,18.0,-23.0,-25.0,-19.0,-20.0,-14.0,-9.0,0.0,-1.0,-35.0,-17.0,-27.0,-17.0,-11.0,-6.0,8.0,65.0,11.0,-11.0,3
4.0,6.0,8.0,10.0,5.0,1.0,5.0,7.0,-36.0,7.0,5.0,3.0,0.0,-3.0,7.0,4.0,-109.0,-67.0,7.0,1.0,2.0,6.0,11.0,23.0,3
13.0,9.0,12.0,16.0,37.0,50.0,25.0,8.0,-15.0,22.0,13.0,17.0,11.0,23.0,17.0,5.0,9.0,16.0,7.0,6.0,19.0,35.0,17.0,-9.0,3
12.0,10.0,7.0,1.0,-19.0,2.0,12.0,13.0,2.0,8.0,4.0,-2.0,-18.0,-36.0,-4.0,6.0,-43.0,-17.0,9.0,5.0,6.0,-28.0,-7.0,19.0,3
44.0,41.0,35.0,32.0,9.0,11.0,1.0,34.0,-34.0,21.0,29.0,8.0,-37.0,-141.0,4.0,24.0,-134.0,-365.0,23.0,5.0,-25.0,-26.0,32.0,84.0,3
55.0,60.0,61.0,65.0,71.0,63.0,42.0,51.0,-6.0,60.0,64.0,65.0,90.0,104.0,43.0,49.0,-64.0,-238.0,53.0,54.0,59.0,87.0,73.0,103.0,3
12.0,5.0,3.0,-8.0,-27.0,-29.0,37.0,28.0,-267.0,94.0,-1.0,-24.0,-64.0,-74.0,13.0,19.0,-15.0,-568.0,-27.0,-33.0,-77.0,-195.0,-51.0,25.0,3
0.0,1.0,2.0,5.0,5.0,35.0,16.0,-2.0,-26.0,5.0,-3.0,-5.0,-2.0,-4.0,1.0,-5.0,-2.0,-5.0,-2.0,-3.0,-15.0,-4.0,10.0,-7.0,3
86.0,91.0,92.0,94.0,95.0,87.0,89.0,90.0,68.0,62.0,92.0,86.0,92.0,98.0,89.0,81.0,-156.0,-371.0,84.0,89.0,89.0,107.0,131.0,204.0,3
30.0,34.0,33.0,34.0,42.0,36.0,34.0,35.0,-45.0,-47.0,34.0,29.0,25.0,16.0,34.0,22.0,-312.0,-744.0,18.0,34.0,33.0,36.0,43.0,98.0,3
8.0,7.0,5.0,0.0,-26.0,-47.0,-35.0,1.0,-47.0,17.0,10.0,6.0,17.0,-11.0,36.0,25.0,-106.0,-24.0,-8.0,6.0,12.0,53.0,48.0,43.0,3
-32.0,-32.0,-32.0,-27.0,-2.0,-12.0,-42.0,-39.0,143.0,-62.0,-20.0,-12.0,15.0,141.0,2.0,-32.0,245.0,240.0,-9.0,10.0,44.0,-38.0,-59.0,-110.0,3
-29.0,-28.0,-31.0,-28.0,1.0,28.0,-40.0,-37.0,-321.0,97.0,-11.0,-19.0,-27.0,33.0,17.0,-10.0,-58.0,-658.0,-32.0,-18.0,-25.0,-34.0,3.0,19.0,3
7.0,7.0,5.0,0.0,-11.0,-51.0,-3.0,9.0,17.0,-8.0,1.0,-9.0,-28.0,-27.0,-11.0,0.0,20.0,23.0,3.0,-3.0,-1.0,-25.0,-4.0,-16.0,3
6.0,5.0,6.0,9.0,10.0,12.0,16.0,10.0,0.0,10.0,7.0,6.0,15.0,9.0,0.0,3.0,9.0,2.0,6.0,6.0,0.0,-15.0,5.0,4.0,3
-5.0,-5.0,-2.0,-4.0,-10.0,-11.0,-11.0,-8.0,-12.0,-1.0,-3.0,-1.0,0.0,-6.0,-3.0,4.0,-18.0,-11.0,3.0,3.0,-3.0,-1.0,3.0,4.0,3
14.0,12.0,10.0,7.0,5.0,-12.0,11.0,13.0,9.0,9.0,11.0,11.0,-2.0,-28.0,-2.0,12.0,3.0,-2.0,7.0,4.0,2.0,5.0,8.0,12.0,3
-7.0,-6.0,-6.0,-6.0,-9.0,-22.0,-26.0,-8.0,12.0,-16.0,-7.0,-2.0,2.0,14.0,7.0,-11.0,-3.0,1.0,-4.0,-1.0,8.0,7.0,-11.0,-13.0,3
-4.0,-4.0,-3.0,-3.0,-8.0,1.0,3.0,-2.0,-9.0,-3.0,0.0,0.0,4.0,24.0,-13.0,-6.0,-16.0,-10.0,-3.0,-1.0,3.0,-24.0,-8.0,-3.0,3
-15.0,-19.0,-22.0,-27.0,-9.0,7.0,-20.0,-19.0,1.0,-28.0,-16.0,-12.0,-22.0,-1.0,-15.0,-11.0,-23.0,-13.0,-12.0,-11.0,4.0,28.0,10.0,-4.0,3
-32.0,-30.0,-32.0,-33.0,-41.0,-14.0,-38.0,-28.0,334.0,-27.0,-43.0,-40.0,-64.0,-44.0,-13.0,-18.0,202.0,919.0,6.0,-31.0,-15.0,-27.0,-102.0,-173.0,3
-4.0,-10.0,-10.0,-13.0,-5.0,14.0,-16.0,-11.0,-7.0,-10.0,-4.0,-4.0,-1.0,-4.0,-4.0,-12.0,-22.0,-33.0,-5.0,0.0,-11.0,9.0,19.0,25.0,3
-8.0,-9.0,-10.0,-11.0,-18.0,-20.0,-23.0,-10.0,-2.0,-7.0,-11.0,-12.0,-9.0,28.0,29.0,0.0,-15.0,-5.0,-4.0,-4.0,10.0,-10.0,-6.0,0.0,3
8.0,8.0,11.0,16.0,12.0,21.0,6.0,10.0,73.0,-31.0,7.0,14.0,4.0,29.0,26.0,15.0,8.0,25.0,4.0,6.0,17.0,-20.0,-12.0,-4.0,3
-22.0,-22.0,-20.0,-18.0,-17.0,-6.0,-17.0,-22.0,-6.0,-30.0,-19.0,-19.0,-29.0,-43.0,-53.0,-26.0,-519.0,216.0,43.0,-9.0,-7.0,-80.0,-74.0,-3.0,3
6.0,5.0,5.0,0.0,-7.0,-21.0,0.0,8.0,3.0,3.0,3.0,0.0,-11.0,-16.0,0.0,4.0,-3.0,-5.0,3.0,4.0,3.0,-3.0,-6.0,10.0,3
5.0,3.0,1.0,-4.0,-17.0,-60.0,-14.0,-3.0,-18.0,14.0,2.0,-4.0,-10.0,21.0,-13.0,-3.0,89.0,-1.0,-5.0,-4.0,-7.0,10.0,-4.0,-8.0,3
-11.0,-3.0,-3.0,-5.0,0.0,12.0,-2.0,-3.0,7.0,-5.0,-5.0,-2.0,7.0,0.0,-13.0,-14.0,-1.0,-5.0,-1.0,-3.0,-10.0,-33.0,-29.0,-15.0,3
15.0,17.0,16.0,13.0,10.0,9.0,19.0,17.0,-54.0,44.0,21.0,22.0,9.0,-5.0,-3.0,8.0,-25.0,-28.0,4.0,8.0,-5.0,-2.0,36.0,66.0,3
31.0,28.0,25.0,22.0,2.0,-33.0,16.0,25.0,-280.0,156.0,34.0,18.0,23.0,-30.0,-1.0,11.0,-49.0,-625.0,10.0,25.0,-5.0,29.0,34.0,86.0,3
-11.0,-5.0,-3.0,2.0,11.0,-21.0,-28.0,-23.0,-4.0,-14.0,-6.0,-2.0,17.0,-14.0,-23.0,-20.0,-2.0,31.0,-6.0,-14.0,-58.0,-46.0,-26.0,-7.0,3
11.0,4.0,3.0,2.0,-2.0,-14.0,-8.0,0.0,-25.0,13.0,3.0,-1.0,-4.0,-7.0,-7.0,-2.0,-23.0,-32.0,-3.0,2.0,3.0,14.0,23.0,35.0,3
6.0,4.0,1.0,-9.0,-33.0,66.0,66.0,18.0,-148.0,64.0,14.0,-7.0,-1.0,19.0,36.0,19.0,-138.0,-479.0,-1.0,8.0,22.0,15.0,31.0,72.0,3
1.0,0.0,0.0,5.0,19.0,12.0,10.0,1.0,10.0,0.0,1.0,4.0,8.0,14.0,16.0,2.0,11.0,12.0,0.0,-4.0,-15.0,-40.0,2.0,0.0,3
7.0,4.0,2.0,-3.0,-8.0,0.0,27.0,12.0,8.0,-6.0,-2.0,-11.0,-33.0,-80.0,-11.0,2.0,10.0,39.0,-1.0,-9.0,-14.0,-70.0,-35.0,-12.0,3
-6.0,-8.0,-7.0,-4.0,10.0,75.0,31.0,1.0,8.0,-11.0,-3.0,-4.0,-9.0,-41.0,-18.0,-11.0,-487.0,230.0,54.0,0.0,8.0,21.0,14.0,22.0,3
10.0,7.0,7.0,8.0,0.0,10.0,25.0,14.0,11.0,6.0,6.0,4.0,5.0,-1.0,6.0,9.0,6.0,19.0,6.0,2.0,-18.0,-59.0,-14.0,-11.0,3
19.0,21.0,21.0,19.0,18.0,16.0,21.0,23.0,-35.0,26.0,22.0,20.0,19.0,14.0,27.0,23.0,-157.0,-126.0,27.0,24.0,23.0,27.0,35.0,58.0,3
-13.0,-14.0,-15.0,-17.0,-25.0,-43.0,-29.0,-17.0,-18.0,-11.0,-16.0,-14.0,-11.0,-18.0,-8.0,-5.0,-1.0,-12.0,-9.0,-16.0,-26.0,-22.0,-13.0,5.0,3
9.0,13.0,13.0,20.0,31.0,15.0,-15.0,1.0,-5.0,-60.0,18.0,27.0,38.0,51.0,24.0,17.0,13.0,-367.0,-4.0,15.0,8.0,38.0,20.0,-25.0,3
-9.0,-7.0,-6.0,-4.0,11.0,12.0,-28.0,-15.0,37.0,-38.0,-7.0,4.0,11.0,22.0,-15.0,-9.0,-32.0,-17.0,0.0,4.0,17.0,85.0,23.0,6.0,3
4.0,5.0,7.0,10.0,10.0,4.0,6.0,7.0,-54.0,9.0,9.0,7.0,9.0,2.0,14.0,7.0,-110.0,-137.0,15.0,16.0,13.0,14.0,17.0,28.0,3
-7.0,-9.0,-8.0,-6.0,-12.0,-7.0,-8.0,-4.0,43.0,-43.0,-14.0,-15.0,-20.0,0.0,0.0,-7.0,-37.0,-22.0,-4.0,-6.0,2.0,-31.0,-19.0,-8.0,3
1.0,1.0,2.0,7.0,16.0,7.0,7.0,3.0,-23.0,8.0,1.0,5.0,12.0,30.0,10.0,4.0,27.0,1.0,0.0,7.0,12.0,23.0,2.0,-3.0,3
-6.0,-7.0,-8.0,-7.0,-4.0,-38.0,-36.0,-20.0,15.0,-22.0,-8.0,-4.0,7.0,63.0,-5.0,-18.0,-10.0,45.0,-7.0,-12.0,-3.0,42.0,-2.0,-33.0,3
8.0,8.0,10.0,16.0,26.0,23.0,9.0,8.0,-5.0,13.0,14.0,18.0,28.0,27.0,1.0,19.0,-44.0,-66.0,20.0,30.0,42.0,43.0,39.0,46.0,3
5.0,10.0,11.0,12.0,17.0,25.0,14.0,18.0,-82.0,43.0,11.0,9.0,-5.0,-59.0,9.0,4.0,-134.0,-397.0,8.0,4.0,-39.0,-18.0,28.0,73.0,3
71.0,71.0,66.0,67.0,68.0,66.0,68.0,68.0,-74.0,105.0,70.0,73.0,72.0,72.0,67.0,66.0,-27.0,-221.0,54.0,64.0,67.0,77.0,90.0,132.0,3
-68.0,-60.0,-54.0,-43.0,-24.0,64.0,-41.0,-60.0,14.0,72.0,-54.0,-27.0,13.0,-39.0,-33.0,-56.0,112.0,747.0,-16.0,-15.0,5.0,14.0,-2.0,-33.0,3
96.0,101.0,103.0,100.0,99.0,96.0,99.0,101.0,-2.0,125.0,110.0,102.0,102.0,77.0,116.0,102.0,-309.0,-355.0,96.0,103.0,106.0,129.0,178.0,285.0,3
-22.0,-25.0,-26.0,-28.0,-26.0,-3.0,-14.0,-20.0,50.0,-51.0,-24.0,-23.0,-16.0,-3.0,-12.0,-10.0,-4.0,-1.0,-15.0,-17.0,-20.0,2.0,-13.0,-27.0,3
-7.0,4.0,-8.0,-12.0,-23.0,21.0,12.0,-11.0,31.0,-22.0,-11.0,-10.0,21.0,28.0,-9.0,-7.0,7.0,20.0,-5.0,-9.0,-21.0,-35.0,-38.0,-33.0,3
13.0,12.0,6.0,8.0,7.0,3.0,-12.0,9.0,-13.0,-41.0,9.0,6.0,-25.0,-93.0,-4.0,6.0,-330.0,-466.0,11.0,4.0,17.0,42.0,45.0,77.0,3
-4.0,-3.0,-5.0,-4.0,-4.0,8.0,10.0,-1.0,-48.0,8.0,-4.0,-6.0,-15.0,-37.0,-1.0,0.0,-32.0,-40.0,-10.0,-6.0,-10.0,-21.0,8.0,40.0,3
62.0,64.0,58.0,51.0,36.0,76.0,97.0,74.0,-24.0,43.0,61.0,54.0,49.0,67.0,35.0,40.0,23.0,-547.0,9.0,56.0,106.0,70.0,70.0,102.0,3
5.0,4.0,6.0,7.0,-3.0,-8.0,10.0,8.0,-3.0,2.0,0.0,0.0,-11.0,-10.0,1.0,0.0,9.0,3.0,-1.0,-4.0,1.0,16.0,3.0,-6.0,3
-9.0,-10.0,-13.0,-18.0,-29.0,-45.0,0.0,3.0,1.0,-15.0,-12.0,-22.0,-32.0,-75.0,-5.0,1.0,-464.0,228.0,43.0,-11.0,-27.0,-66.0,7.0,32.0,3
16.0,12.0,10.0,12.0,20.0,14.0,18.0,6.0,-26.0,18.0,8.0,6.0,-7.0,-11.0,18.0,15.0,-18.0,-121.0,-2.0,-4.0,-20.0,-5.0,8.0,25.0,3
15.0,12.0,13.0,13.0,20.0,64.0,35.0,21.0,-5.0,19.0,17.0,28.0,41.0,59.0,17.0,17.0,-5.0,28.0,21.0,32.0,78.0,58.0,16.0,17.0,3
13.0,13.0,14.0,10.0,7.0,-4.0,10.0,11.0,7.0,12.0,10.0,8.0,1.0,-18.0,12.0,11.0,3.0,-1.0,6.0,1.0,-18.0,-24.0,-1.0,9.0,3
4.0,4.0,5.0,9.0,8.0,11.0,19.0,10.0,11.0,-3.0,4.0,4.0,-5.0,-47.0,-14.0,4.0,23.0,31.0,4.0,9.0,22.0,17.0,-2.0,1.0,3
23.0,23.0,19.0,6.0,-23.0,-40.0,7.0,24.0,-5.0,23.0,19.0,19.0,13.0,-23.0,3.0,13.0,14.0,14.0,15.0,14.0,15.0,5.0,1.0,5.0,3
-18.0,-16.0,-15.0,-14.0,-5.0,12.0,-24.0,-18.0,-14.0,-16.0,-15.0,-13.0,0.0,3.0,-16.0,-15.0,-1.0,36.0,-11.0,-11.0,-10.0,-3.0,-15.0,-9.0,3
14.0,14.0,16.0,17.0,26.0,48.0,65.0,32.0,1.0,-126.0,19.0,21.0,27.0,27.0,37.0,23.0,-160.0,-619.0,17.0,18.0,10.0,14.0,9.0,5.0,3
1.0,1.0,0.0,-8.0,-11.0,-17.0,-6.0,-3.0,30.0,-18.0,-1.0,3.0,-9.0,-33.0,3.0,0.0,-15.0,-11.0,4.0,1.0,-2.0,-2.0,0.0,6.0,3
-11.0,-11.0,-9.0,-6.0,-3.0,2.0,-1.0,-10.0,-50.0,1.0,-7.0,-2.0,0.0,13.0,-19.0,-17.0,-18.0,-23.0,-8.0,-8.0,-8.0,-27.0,-28.0,-28.0,3
5.0,2.0,2.0,5.0,7.0,6.0,7.0,5.0,21.0,-2.0,8.0,12.0,6.0,6.0,6.0,6.0,7.0,9.0,4.0,4.0,1.0,-1.0,-3.0,-7.0,3
75.0,79.0,80.0,71.0,73.0,74.0,76.0,79.0,-28.0,104.0,85.0,76.0,78.0,60.0,89.0,79.0,-351.0,-386.0,74.0,83.0,85.0,114.0,163.0,264.0,3
32.0,32.0,29.0,32.0,37.0,88.0,41.0,36.0,-76.0,54.0,37.0,31.0,25.0,-3.0,32.0,30.0,-120.0,-316.0,33.0,38.0,56.0,60.0,63.0,90.0,3
16.0,15.0,18.0,25.0,39.0,8.0,32.0,22.0,20.0,16.0,22.0,33.0,61.0,52.0,14.0,22.0,32.0,64.0,25.0,32.0,20.0,14.0,32.0,31.0,3
1.0,2.0,4.0,6.0,9.0,8.0,-10.0,-2.0,-3.0,2.0,7.0,12.0,28.0,64.0,12.0,1.0,26.0,1.0,6.0,12.0,20.0,37.0,21.0,1.0,3
18.0,7.0,5.0,3.0,-1.0,-12.0,-6.0,4.0,-106.0,117.0,18.0,8.0,12.0,38.0,23.0,16.0,-22.0,25.0,2.0,19.0,34.0,65.0,77.0,96.0,3
28.0,34.0,31.0,21.0,6.0,32.0,34.0,37.0,40.0,25.0,32.0,34.0,29.0,25.0,67.0,36.0,-16.0,10.0,25.0,32.0,54.0,48.0,55.0,45.0,3
19.0,19.0,17.0,17.0,8.0,20.0,56.0,33.0,-46.0,21.0,21.0,12.0,2.0,-38.0,11.0,17.0,-233.0,-472.0,21.0,1.0,-5.0,0.0,44.0,77.0,3
12.0,10.0,9.0,8.0,5.0,-4.0,17.0,12.0,2.0,12.0,7.0,6.0,3.0,-19.0,4.0,12.0,-1.0,-8.0,5.0,1.0,0.0,-3.0,-5.0,-3.0,3
11.0,6.0,6.0,6.0,4.0,17.0,22.0,-1.0,49.0,-27.0,3.0,7.0,6.0,21.0,7.0,-4.0,38.0,94.0,7.0,0.0,10.0,-13.0,-47.0,-77.0,3
3.0,3.0,5.0,11.0,28.0,46.0,27.0,4.0,14.0,1.0,5.0,11.0,17.0,56.0,40.0,17.0,14.0,18.0,1.0,-1.0,4.0,13.0,13.0,1.0,3
-16.0,-20.0,-20.0,-22.0,-9.0,-15.0,-12.0,-19.0,-15.0,-31.0,-21.0,-20.0,-20.0,-30.0,-15.0,-10.0,-28.0,-37.0,-25.0,-25.0,-56.0,-29.0,-2.0,26.0,3
-38.0,-50.0,-58.0,-62.0,-55.0,53.0,10.0,-18.0,23.0,-62.0,-52.0,-78.0,-118.0,-42.0,-40.0,-29.0,234.0,-44.0,-68.0,-47.0,-36.0,-87.0,-98.0,-123.0,3
2.0,1.0,-2.0,-2.0,-7.0,13.0,17.0,4.0,2.0,4.0,2.0,0.0,5.0,1.0,13.0,10.0,10.0,21.0,2.0,7.0,16.0,6.0,1.0,4.0,3
-8.0,-11.0,-11.0,-9.0,-9.0,-8.0,-8.0,-8.0,111.0,-43.0,-15.0,-6.0,-9.0,-9.0,-6.0,-8.0,3.0,-35.0,-9.0,-7.0,-3.0,-4.0,-6.0,-4.0,3
17.0,19.0,20.0,19.0,12.0,8.0,25.0,16.0,-39.0,41.0,15.0,7.0,-17.0,-70.0,-5.0,3.0,-21.0,-102.0,0.0,-2.0,4.0,10.0,-2.0,26.0,3
-54.0,-54.0,-54.0,-54.0,-54.0,-37.0,-63.0,-61.0,97.0,-145.0,-54.0,-55.0,-63.0,-70.0,-51.0,-64.0,124.0,-1.0,-65.0,-47.0,-38.0,-43.0,-85.0,-146.0,3
9.0,15.0,17.0,14.0,23.0,19.0,48.0,14.0,-79.0,-105.0,25.0,23.0,23.0,10.0,26.0,8.0,-159.0,-567.0,11.0,12.0,11.0,-15.0,25.0,59.0,3
21.0,21.0,21.0,25.0,45.0,56.0,14.0,19.0,-31.0,39.0,18.0,16.0,11.0,-65.0,-6.0,14.0,-4.0,-60.0,2.0,4.0,-6.0,64.0,43.0,57.0,3
-4.0,0.0,-2.0,-4.0,-5.0,-3.0,-9.0,-5.0,13.0,-16.0,2.0,5.0,24.0,3.0,-16.0,-8.0,-102.0,-146.0,-3.0,-5.0,-35.0,-3.0,30.0,36.0,3
30.0,27.0,26.0,19.0,12.0,36.0,43.0,34.0,-19.0,53.0,29.0,24.0,13.0,40.0,67.0,44.0,-39.0,-209.0,22.0,20.0,20.0,-5.0,31.0,61.0,3
-20.0,-26.0,-29.0,-34.0,-33.0,17.0,-7.0,-28.0,-68.0,-4.0,-18.0,-23.0,-31.0,15.0,7.0,-5.0,-66.0,-237.0,-11.0,1.0,35.0,62.0,36.0,29.0,3
-2.0,0.0,2.0,9.0,26.0,11.0,-5.0,-6.0,6.0,-20.0,3.0,6.0,14.0,76.0,34.0,-4.0,-61.0,-41.0,-4.0,-6.0,-14.0,-34.0,20.0,3.0,3
15.0,15.0,13.0,9.0,-3.0,-25.0,-12.0,9.0,-96.0,38.0,21.0,16.0,29.0,44.0,16.0,8.0,-138.0,-337.0,19.0,23.0,28.0,49.0,48.0,63.0,3
-9.0,-9.0,-11.0,-12.0,-9.0,-7.0,-8.0,-7.0,3.0,-17.0,-11.0,-6.0,-7.0,-8.0,-8.0,-7.0,0.0,0.0,-4.0,0.0,-2.0,-7.0,-9.0,-11.0,3
0.0,1.0,4.0,9.0,26.0,45.0,27.0,10.0,-21.0,29.0,14.0,29.0,92.0,206.0,67.0,32.0,-22.0,-159.0,23.0,30.0,46.0,54.0,82.0,72.0,3
-6.0,-8.0,-7.0,-6.0,7.0,59.0,19.0,-2.0,-10.0,-1.0,-6.0,-8.0,-5.0,9.0,15.0,4.0,5.0,16.0,-6.0,-13.0,-23.0,-32.0,-1.0,1.0,3
-22.0,-21.0,-22.0,-23.0,-25.0,-29.0,-45.0,-28.0,31.0,-46.0,-20.0,-16.0,-4.0,23.0,-15.0,-19.0,-10.0,-13.0,-12.0,-9.0,-11.0,-8.0,-7.0,-9.0,3
15.0,20.0,24.0,28.0,29.0,7.0,-4.0,7.0,7.0,21.0,25.0,27.0,46.0,20.0,9.0,17.0,-24.0,-30.0,23.0,19.0,29.0,49.0,34.0,42.0,3
82.0,64.0,72.0,68.0,74.0,74.0,76.0,78.0,68.0,60.0,79.0,78.0,79.0,86.0,81.0,80.0,40.0,-311.0,64.0,72.0,79.0,100.0,122.0,145.0,3
16.0,18.0,20.0,18.0,20.0,-10.0,9.0,15.0,-1.0,23.0,17.0,19.0,10.0,31.0,25.0,19.0,8.0,5.0,11.0,10.0,15.0,28.0,39.0,18.0,3
33.0,31.0,33.0,35.0,32.0,21.0,56.0,41.0,6.0,42.0,33.0,33.0,34.0,44.0,58.0,37.0,62.0,70.0,25.0,32.0,42.0,-16.0,1.0,27.0,3
11.0,10.0,14.0,21.0,15.0,2.0,17.0,14.0,12.0,12.0,12.0,13.0,14.0,20.0,20.0,17.0,1.0,12.0,11.0,16.0,25.0,14.0,28.0,31.0,3
14.0,15.0,14.0,16.0,18.0,13.0,8.0,12.0,31.0,4.0,11.0,13.0,14.0,7.0,0.0,8.0,13.0,18.0,9.0,10.0,6.0,-8.0,-8.0,6.0,3
21.0,20.0,15.0,12.0,-33.0,-82.0,23.0,29.0,-31.0,-11.0,12.0,-3.0,7.0,-52.0,14.0,28.0,-114.0,-463.0,-1.0,-1.0,-50.0,-82.0,-12.0,32.0,3
-9.0,-11.0,-12.0,-11.0,-12.0,-14.0,-30.0,-15.0,-10.0,-10.0,-4.0,-2.0,4.0,3.0,-9.0,-7.0,3.0,12.0,-1.0,6.0,11.0,14.0,0.0,1.0,3
-8.0,-11.0,-10.0,-7.0,4.0,-2.0,-17.0,-17.0,-5.0,-1.0,-7.0,0.0,10.0,11.0,0.0,-2.0,8.0,21.0,-7.0,1.0,5.0,10.0,1.0,8.0,3
-3.0,-5.0,-6.0,-17.0,-39.0,-20.0,33.0,17.0,11.0,-2.0,-9.0,-18.0,-45.0,-74.0,-7.0,10.0,3.0,36.0,-8.0,-4.0,31.0,-5.0,-2.0,5.0,3
-16.0,-19.0,-26.0,-26.0,-40.0,-15.0,-58.0,-33.0,60.0,-112.0,-27.0,-19.0,-1.0,-23.0,-40.0,-30.0,207.0,53.0,-32.0,-18.0,3.0,10.0,-68.0,-154.0,3
-8.0,-2.0,-6.0,2.0,46.0,26.0,-36.0,-33.0,55.0,-72.0,-2.0,0.0,42.0,-24.0,0.0,-14.0,157.0,-180.0,-41.0,-25.0,-90.0,-20.0,-51.0,-55.0,3
-20.0,-23.0,-24.0,-27.0,-26.0,-19.0,-31.0,-20.0,19.0,-35.0,-21.0,-18.0,-16.0,10.0,-3.0,-8.0,-5.0,11.0,-12.0,-12.0,-8.0,-2.0,-27.0,-27.0,3
-5.0,-5.0,-5.0,-5.0,-9.0,-24.0,-5.0,-2.0,-6.0,-5.0,-5.0,-7.0,-11.0,-6.0,-6.0,-5.0,-11.0,-6.0,-2.0,-7.0,-16.0,-8.0,-5.0,-8.0,3
-10.0,-10.0,-13.0,-20.0,-37.0,-80.0,-21.0,-15.0,-23.0,5.0,-8.0,-12.0,-20.0,-6.0,-11.0,-8.0,-6.0,3.0,-2.0,-1.0,-5.0,13.0,1.0,-9.0,3
5.0,7.0,7.0,14.0,10.0,6.0,8.0,10.0,-37.0,8.0,6.0,5.0,8.0,0.0,8.0,7.0,-113.0,-74.0,10.0,8.0,6.0,10.0,15.0,29.0,3
29.0,-2.0,-6.0,-11.0,-23.0,15.0,19.0,-9.0,471.0,-153.0,-8.0,-18.0,-46.0,-142.0,-81.0,-20.0,47.0,347.0,14.0,-19.0,-38.0,-69.0,-144.0,-264.0,3
10.0,18.0,20.0,29.0,60.0,135.0,33.0,1.0,-33.0,-10.0,27.0,31.0,33.0,4.0,10.0,6.0,-144.0,-482.0,4.0,20.0,23.0,40.0,25.0,30.0,3
2.0,3.0,3.0,4.0,0.0,-13.0,-14.0,-2.0,-7.0,9.0,3.0,3.0,4.0,-10.0,-6.0,1.0,5.0,12.0,7.0,8.0,17.0,49.0,23.0,5.0,3
27.0,30.0,28.0,20.0,5.0,-56.0,18.0,21.0,48.0,16.0,21.0,20.0,19.0,33.0,14.0,5.0,25.0,31.0,13.0,9.0,7.0,-32.0,-37.0,-47.0,3
32.0,58.0,60.0,68.0,77.0,7.0,52.0,56.0,587.0,-534.0,25.0,64.0,76.0,82.0,34.0,40.0,-127.0,-562.0,28.0,54.0,59.0,83.0,124.0,216.0,3
1.0,0.0,1.0,1.0,0.0,0.0,-5.0,1.0,-2.0,-1.0,0.0,0.0,1.0,23.0,2.0,2.0,-3.0,-6.0,3.0,4.0,25.0,42.0,10.0,9.0,3
14.0,7.0,6.0,5.0,10.0,8.0,10.0,8.0,15.0,-8.0,4.0,1.0,4.0,16.0,12.0,8.0,5.0,6.0,1.0,-3.0,-21.0,-22.0,-1.0,-1.0,3
4.0,-2.0,-5.0,-5.0,0.0,5.0,6.0,0.0,13.0,-11.0,-2.0,0.0,5.0,14.0,11.0,2.0,16.0,50.0,3.0,7.0,4.0,-15.0,5.0,5.0,3
-19.0,-21.0,-23.0,-27.0,-45.0,-25.0,-2.0,-14.0,-25.0,-16.0,-24.0,-31.0,-34.0,-56.0,-24.0,-12.0,-10.0,-17.0,-15.0,-18.0,-29.0,-31.0,-8.0,-15.0,3
-2.0,2.0,4.0,4.0,5.0,5.0,9.0,7.0,6.0,12.0,6.0,5.0,9.0,10.0,4.0,8.0,-2.0,-2.0,3.0,2.0,3.0,2.0,8.0,6.0,3
-17.0,-14.0,-15.0,-20.0,-23.0,4.0,7.0,0.0,-25.0,-1.0,-12.0,-18.0,-23.0,-27.0,-5.0,-5.0,98.0,-31.0,-17.0,-13.0,-20.0,-57.0,-27.0,-15.0,3
10.0,13.0,8.0,6.0,0.0,-51.0,-1.0,-2.0,26.0,-6.0,8.0,7.0,-1.0,8.0,5.0,0.0,26.0,32.0,14.0,13.0,15.0,32.0,19.0,3.0,3
-17.0,-17.0,-16.0,-11.0,-12.0,-7.0,-30.0,-17.0,4.0,-23.0,-17.0,-17.0,-11.0,-6.0,-4.0,-5.0,-1.0,-1.0,-8.0,-9.0,-1.0,30.0,10.0,-4.0,3
27.0,25.0,24.0,23.0,11.0,43.0,54.0,35.0,-60.0,42.0,28.0,26.0,38.0,-16.0,23.0,16.0,-107.0,-263.0,23.0,19.0,12.0,-45.0,3.0,40.0,3
-13.0,-12.0,-11.0,-11.0,-10.0,-24.0,-32.0,-18.0,-19.0,-7.0,-9.0,-9.0,4.0,5.0,-6.0,-6.0,-9.0,-20.0,-5.0,-1.0,6.0,50.0,10.0,3.0,3
1.0,2.0,3.0,4.0,9.0,11.0,-3.0,-3.0,26.0,-8.0,1.0,4.0,13.0,-6.0,-33.0,-12.0,9.0,15.0,-1.0,3.0,13.0,8.0,-25.0,-12.0,3
27.0,20.0,15.0,8.0,-4.0,-52.0,20.0,26.0,24.0,-64.0,8.0,-15.0,-73.0,-56.0,35.0,18.0,-306.0,-372.0,-5.0,-20.0,-51.0,-147.0,13.0,63.0,3
-6.0,-6.0,-7.0,-11.0,-18.0,-29.0,-19.0,-10.0,0.0,-6.0,-6.0,-8.0,-13.0,-16.0,-13.0,-8.0,9.0,15.0,-5.0,-13.0,-36.0,-26.0,-5.0,-3.0,3
18.0,20.0,18.0,10.0,-16.0,-12.0,2.0,21.0,-2.0,32.0,15.0,8.0,-3.0,-37.0,8.0,18.0,65.0,-9.0,19.0,19.0,19.0,34.0,41.0,48.0,3
-17.0,-14.0,-11.0,-4.0,31.0,162.0,40.0,-5.0,-54.0,-127.0,0.0,8.0,22.0,10.0,-3.0,2.0,-280.0,-784.0,-5.0,8.0,15.0,106.0,56.0,50.0,3
6.0,8.0,8.0,7.0,5.0,-9.0,2.0,8.0,-8.0,14.0,8.0,13.0,21.0,47.0,9.0,4.0,9.0,-9.0,9.0,12.0,20.0,24.0,27.0,17.0,3
17.0,15.0,16.0,18.0,20.0,5.0,10.0,12.0,64.0,-12.0,13.0,12.0,19.0,36.0,23.0,10.0,17.0,16.0,8.0,5.0,-5.0,-2.0,11.0,2.0,3
-4.0,0.0,-2.0,2.0,29.0,36.0,-9.0,-1.0,-76.0,-65.0,6.0,8.0,14.0,27.0,35.0,9.0,-331.0,-759.0,-2.0,16.0,19.0,42.0,55.0,92.0,3
3.0,2.0,1.0,0.0,7.0,21.0,7.0,0.0,0.0,4.0,3.0,2.0,3.0,-5.0,1.0,3.0,3.0,6.0,-3.0,-1.0,-3.0,-6.0,-12.0,-9.0,3
-4.0,-10.0,-6.0,-5.0,-8.0,-5.0,-8.0,-10.0,96.0,-64.0,-13.0,-10.0,-11.0,6.0,-11.0,-9.0,21.0,-139.0,-43.0,-23.0,-17.0,-19.0,-27.0,-59.0,3
-3.0,-5.0,-7.0,-7.0,-1.0,19.0,5.0,-4.0,-4.0,-14.0,-5.0,-5.0,-3.0,-1.0,-30.0,-11.0,-453.0,231.0,53.0,7.0,11.0,21.0,6.0,32.0,3
41.0,41.0,41.0,46.0,43.0,37.0,49.0,44.0,4.0,50.0,39.0,30.0,35.0,22.0,32.0,38.0,-50.0,-11.0,29.0,21.0,2.0,1.0,38.0,51.0,3
-78.0,-79.0,-76.0,-70.0,-40.0,-23.0,-79.0,-71.0,43.0,-48.0,-73.0,-60.0,-23.0,-29.0,-80.0,-60.0,105.0,381.0,-49.0,-69.0,-79.0,-87.0,-122.0,-148.0,3
22.0,27.0,27.0,30.0,53.0,78.0,88.0,39.0,-37.0,-73.0,31.0,30.0,40.0,66.0,77.0,37.0,-316.0,-763.0,10.0,17.0,-7.0,-60.0,-18.0,58.0,3
-43.0,-1.0,8.0,12.0,21.0,-1.0,-32.0,-6.0,-652.0,372.0,31.0,25.0,45.0,84.0,-10.0,12.0,-188.0,-715.0,-14.0,31.0,55.0,177.0,158.0,299.0,3
40.0,37.0,37.0,35.0,25.0,63.0,61.0,39.0,50.0,21.0,35.0,33.0,21.0,-45.0,-21.0,21.0,-25.0,-2.0,27.0,24.0,17.0,5.0,-3.0,32.0,3
6.0,2.0,1.0,0.0,5.0,19.0,12.0,6.0,7.0,-5.0,1.0,-4.0,-2.0,-6.0,-2.0,0.0,25.0,15.0,-1.0,-1.0,-1.0,-8.0,7.0,-1.0,3
33.0,30.0,30.0,31.0,27.0,34.0,31.0,31.0,-31.0,73.0,37.0,24.0,29.0,35.0,32.0,32.0,-113.0,-398.0,-2.0,31.0,35.0,51.0,66.0,68.0,3
12.0,13.0,16.0,21.0,16.0,13.0,12.0,14.0,3.0,6.0,16.0,13.0,17.0,9.0,17.0,13.0,-37.0,-92.0,15.0,17.0,18.0,25.0,33.0,43.0,3
60.0,62.0,60.0,55.0,35.0,71.0,69.0,73.0,1.0,60.0,54.0,45.0,22.0,-23.0,5.0,42.0,269.0,-365.0,-39.0,31.0,39.0,23.0,54.0,71.0,3
-5.0,-5.0,-3.0,-2.0,3.0,4.0,-14.0,-10.0,-3.0,-4.0,-3.0,0.0,6.0,5.0,-16.0,-6.0,-9.0,-5.0,-2.0,-3.0,-4.0,10.0,-11.0,-10.0,3
-8.0,-7.0,-10.0,-11.0,-21.0,-58.0,-14.0,-4.0,-13.0,-4.0,-9.0,-14.0,-32.0,-34.0,-10.0,-5.0,4.0,3.0,-10.0,-15.0,-23.0,-24.0,-20.0,-3.0,3
-96.0,-99.0,-107.0,-118.0,-145.0,-124.0,-56.0,-75.0,299.0,-142.0,-107.0,-116.0,-130.0,-152.0,-103.0,-81.0,43.0,354.0,-67.0,-98.0,-128.0,-231.0,-197.0,-233.0,3
16.0,16.0,16.0,15.0,16.0,36.0,35.0,18.0,11.0,17.0,12.0,11.0,-5.0,-36.0,7.0,16.0,8.0,19.0,4.0,-1.0,-13.0,-56.0,-21.0,-17.0,3
35.0,38.0,41.0,45.0,63.0,66.0,24.0,35.0,19.0,-99.0,46.0,50.0,62.0,84.0,71.0,42.0,-149.0,-623.0,40.0,50.0,65.0,76.0,56.0,50.0,3
45.0,48.0,53.0,58.0,72.0,89.0,37.0,43.0,-1.0,18.0,58.0,64.0,85.0,130.0,60.0,55.0,-96.0,-430.0,35.0,57.0,74.0,103.0,87.0,91.0,3
0.0,1.0,1.0,4.0,9.0,-10.0,4.0,1.0,-10.0,1.0,0.0,0.0,-10.0,-30.0,-12.0,-2.0,-20.0,-11.0,3.0,0.0,-3.0,-18.0,-13.0,-5.0,3
24.0,29.0,28.0,25.0,5.0,-129.0,-30.0,7.0,-137.0,72.0,41.0,34.0,38.0,38.0,-26.0,17.0,-205.0,-447.0,23.0,35.0,61.0,159.0,83.0,65.0,3
-22.0,-21.0,-21.0,-15.0,-14.0,-36.0,-43.0,-30.0,70.0,-69.0,-26.0,-23.0,-12.0,-20.0,-30.0,-32.0,8.0,0.0,-20.0,-17.0,-29.0,13.0,-13.0,-23.0,3
-8.0,-1.0,2.0,3.0,-8.0,-65.0,-43.0,-23.0,-11.0,-4.0,-1.0,-3.0,5.0,26.0,-25.0,-29.0,1.0,46.0,-1.0,3.0,6.0,23.0,4.0,-8.0,3
107.0,111.0,112.0,109.0,111.0,111.0,110.0,112.0,3.0,112.0,117.0,110.0,112.0,88.0,121.0,111.0,-363.0,-417.0,103.0,111.0,116.0,145.0,196.0,290.0,3
-50.0,-46.0,-43.0,-33.0,-19.0,-30.0,-119.0,-73.0,541.0,-320.0,-52.0,-23.0,17.0,41.0,-80.0,-56.0,66.0,583.0,-25.0,-33.0,-23.0,43.0,-57.0,-175.0,3
-4.0,-8.0,-8.0,-8.0,-15.0,2.0,-2.0,-4.0,37.0,-20.0,-9.0,-6.0,10.0,-4.0,1.0,-2.0,-2.0,25.0,-2.0,-4.0,-30.0,-22.0,10.0,10.0,3
14.0,13.0,12.0,11.0,10.0,-7.0,23.0,15.0,84.0,-22.0,11.0,13.0,18.0,24.0,9.0,12.0,-12.0,1.0,9.0,8.0,11.0,19.0,10.0,4.0,3
13.0,13.0,15.0,17.0,20.0,21.0,11.0,9.0,-18.0,27.0,17.0,17.0,24.0,14.0,-2.0,12.0,4.0,-37.0,20.0,28.0,38.0,80.0,54.0,48.0,3
17.0,14.0,11.0,14.0,21.0,41.0,29.0,18.0,27.0,8.0,11.0,5.0,15.0,-7.0,-28.0,9.0,13.0,58.0,9.0,4.0,12.0,0.0,-31.0,-3.0,3
1.0,-2.0,-1.0,-1.0,-6.0,-1.0,-19.0,-4.0,-66.0,68.0,6.0,-1.0,5.0,-33.0,-21.0,1.0,-9.0,47.0,-3.0,2.0,0.0,20.0,36.0,25.0,3
-4.0,-5.0,-6.0,-5.0,-1.0,12.0,-3.0,-4.0,-6.0,-6.0,-7.0,-10.0,-4.0,-18.0,-9.0,-4.0,-25.0,-10.0,-4.0,-4.0,-12.0,-8.0,8.0,-5.0,3
-1.0,-6.0,-3.0,4.0,16.0,8.0,-58.0,-30.0,12.0,0.0,6.0,23.0,74.0,187.0,33.0,-7.0,1.0,82.0,1.0,19.0,42.0,55.0,-22.0,-22.0,3
