0,1,2,3,4,5,6,7,8,9,10,11,12,13,14,15,16,17,18,19,20,21,22,23,24
-32.0,-27.0,-18.0,-17.0,-19.0,-82.0,-108.0,-122.0,-32.0,-32.0,-33.0,-35.0,-53.0,-64.0,-67.0,-44.0,-46.0,-74.0,-86.0,-77.0,-72.0,-62.0,-54.0,-55.0,3
10.0,8.0,8.0,7.0,7.0,9.0,12.0,8.0,9.0,5.0,6.0,6.0,8.0,9.0,14.0,16.0,4.0,5.0,5.0,6.0,7.0,7.0,11.0,10.0,3
2.0,4.0,10.0,16.0,10.0,-2.0,-18.0,-7.0,-16.0,-3.0,-2.0,-2.0,-8.0,-25.0,-52.0,-84.0,-22.0,-32.0,-32.0,-23.0,-22.0,-31.0,-47.0,-47.0,3
22.0,25.0,24.0,22.0,15.0,19.0,10.0,12.0,12.0,12.0,10.0,10.0,9.0,7.0,8.0,8.0,-93.0,-211.0,-186.0,-142.0,-99.0,-98.0,-102.0,-111.0,3
-19.0,-2.0,-5.0,-9.0,-15.0,2.0,-16.0,-20.0,-2.0,-5.0,-7.0,-3.0,6.0,-1.0,-4.0,-7.0,21.0,57.0,69.0,63.0,51.0,50.0,48.0,51.0,3
-2.0,-1.0,-2.0,-2.0,-9.0,-6.0,-16.0,-37.0,12.0,9.0,5.0,8.0,19.0,38.0,63.0,62.0,17.0,3.0,-3.0,0.0,8.0,31.0,64.0,62.0,3
-23.0,-28.0,-26.0,-24.0,-26.0,-28.0,-31.0,-23.0,-22.0,-24.0,-26.0,-29.0,-31.0,-31.0,-31.0,-41.0,-27.0,-24.0,-22.0,-26.0,-33.0,-37.0,-35.0,-30.0,3
0.0,-6.0,-10.0,-3.0,-9.0,-19.0,-2.0,-15.0,-32.0,-22.0,-20.0,-24.0,-31.0,-41.0,-66.0,-46.0,-76.0,-143.0,-157.0,-127.0,-103.0,-99.0,-79.0,-92.0,3
5.0,6.0,7.0,10.0,-3.0,7.0,-2.0,2.0,-6.0,1.0,3.0,2.0,4.0,5.0,-12.0,-39.0,-5.0,1.0,2.0,4.0,5.0,-8.0,-29.0,-21.0,3
25.0,35.0,31.0,26.0,11.0,11.0,-19.0,-9.0,18.0,21.0,20.0,14.0,10.0,2.0,-4.0,-7.0,23.0,31.0,32.0,29.0,26.0,20.0,11.0,17.0,3
-12.0,-12.0,-12.0,-12.0,-12.0,-9.0,-6.0,-7.0,-10.0,-11.0,-12.0,-9.0,-10.0,-11.0,-9.0,-9.0,-9.0,-7.0,-7.0,-5.0,-6.0,-7.0,-7.0,-7.0,3
-45.0,-49.0,-47.0,-44.0,-51.0,-43.0,-39.0,-40.0,-46.0,-43.0,-47.0,-51.0,-67.0,-99.0,-143.0,-108.0,-29.0,-33.0,-33.0,-34.0,-37.0,-32.0,-15.0,-12.0,3
53.0,51.0,45.0,40.0,42.0,74.0,137.0,89.0,42.0,24.0,42.0,42.0,42.0,59.0,86.0,85.0,35.0,15.0,6.0,10.0,11.0,14.0,17.0,32.0,3
-27.0,-22.0,-19.0,-15.0,-18.0,11.0,33.0,-23.0,-19.0,-16.0,-9.0,-2.0,11.0,27.0,23.0,30.0,-7.0,-13.0,-12.0,0.0,21.0,51.0,56.0,22.0,3
-61.0,-63.0,-62.0,-58.0,-66.0,-46.0,-70.0,-74.0,-89.0,-89.0,-93.0,-97.0,-105.0,-103.0,-108.0,-95.0,-257.0,-525.0,-509.0,-439.0,-375.0,-392.0,-353.0,-368.0,3
27.0,32.0,27.0,24.0,24.0,43.0,44.0,45.0,26.0,27.0,27.0,27.0,24.0,25.0,26.0,25.0,41.0,37.0,34.0,34.0,40.0,49.0,46.0,45.0,3
36.0,37.0,40.0,38.0,37.0,21.0,37.0,42.0,25.0,30.0,31.0,31.0,27.0,17.0,1.0,-14.0,8.0,4.0,2.0,7.0,12.0,4.0,-11.0,-6.0,3
4.0,4.0,7.0,10.0,8.0,14.0,7.0,8.0,9.0,12.0,10.0,10.0,12.0,11.0,11.0,11.0,6.0,16.0,17.0,15.0,12.0,10.0,10.0,9.0,3
-23.0,-18.0,-19.0,-19.0,-36.0,-19.0,-41.0,-46.0,-32.0,-34.0,-36.0,-37.0,-36.0,-38.0,-44.0,-41.0,-125.0,-280.0,-249.0,-206.0,-165.0,-166.0,-161.0,-167.0,3
-70.0,-77.0,-73.0,-66.0,-85.0,-95.0,-88.0,-76.0,-86.0,-86.0,-86.0,-90.0,-101.0,-97.0,-94.0,-82.0,-184.0,-351.0,-369.0,-297.0,-277.0,-271.0,-263.0,-260.0,3
3.0,-20.0,-17.0,-32.0,3.0,-78.0,5.0,-4.0,-24.0,-27.0,-24.0,-24.0,-38.0,-23.0,-23.0,-14.0,-31.0,-68.0,-73.0,-68.0,-75.0,-54.0,-76.0,-69.0,3
-87.0,-82.0,-71.0,-49.0,-64.0,-85.0,-156.0,-235.0,-142.0,-118.0,-107.0,-98.0,-101.0,-96.0,-122.0,-182.0,-220.0,-292.0,-258.0,-228.0,-192.0,-220.0,-233.0,-248.0,3
-45.0,-50.0,-59.0,-49.0,-108.0,-7.0,-99.0,-100.0,-88.0,-76.0,-77.0,-91.0,-106.0,-106.0,-111.0,-94.0,-277.0,-466.0,-483.0,-418.0,-355.0,-376.0,-346.0,-359.0,3
-10.0,-6.0,-9.0,-12.0,-21.0,-24.0,-24.0,-12.0,-3.0,-12.0,-13.0,-13.0,-12.0,-6.0,12.0,37.0,-3.0,-5.0,-4.0,-7.0,-8.0,-10.0,-14.0,-8.0,3
-25.0,-25.0,-21.0,-22.0,-16.0,-6.0,-23.0,-34.0,-20.0,-17.0,-15.0,-12.0,-11.0,-10.0,-12.0,-22.0,-18.0,-6.0,-6.0,-5.0,-3.0,-6.0,-13.0,-16.0,3
-14.0,-16.0,-17.0,-19.0,-25.0,-19.0,0.0,-5.0,-11.0,-18.0,-20.0,-23.0,-26.0,-27.0,-23.0,-21.0,-8.0,-12.0,-10.0,-14.0,-15.0,-16.0,-8.0,2.0,3
-10.0,-17.0,-16.0,-17.0,-12.0,-6.0,-10.0,-17.0,-5.0,-6.0,-9.0,-13.0,-18.0,-29.0,-36.0,-5.0,2.0,1.0,-1.0,-5.0,-13.0,-19.0,-16.0,-5.0,3
11.0,13.0,12.0,15.0,13.0,19.0,10.0,12.0,14.0,14.0,13.0,11.0,15.0,16.0,14.0,13.0,12.0,21.0,18.0,17.0,14.0,13.0,16.0,16.0,3
23.0,22.0,24.0,20.0,7.0,6.0,-17.0,-9.0,15.0,16.0,17.0,17.0,18.0,24.0,19.0,7.0,19.0,22.0,22.0,22.0,22.0,12.0,-4.0,-1.0,3
21.0,31.0,27.0,29.0,30.0,30.0,20.0,25.0,18.0,23.0,23.0,26.0,28.0,34.0,44.0,37.0,9.0,23.0,21.0,24.0,28.0,30.0,23.0,13.0,3
-7.0,-7.0,0.0,5.0,14.0,20.0,-6.0,-3.0,-10.0,-4.0,-4.0,-3.0,-6.0,-19.0,-35.0,-25.0,-2.0,-6.0,3.0,5.0,7.0,1.0,-4.0,-1.0,3
-10.0,-33.0,-30.0,-33.0,57.0,-245.0,27.0,3.0,-58.0,-48.0,-55.0,-75.0,-114.0,-150.0,-168.0,-90.0,-135.0,-280.0,-253.0,-231.0,-203.0,-211.0,-167.0,-174.0,3
-7.0,-8.0,-4.0,-3.0,-4.0,-1.0,-12.0,-26.0,-2.0,-7.0,-5.0,-5.0,0.0,4.0,15.0,35.0,-18.0,-10.0,-7.0,-5.0,-4.0,-1.0,-7.0,-37.0,3
54.0,59.0,58.0,59.0,78.0,46.0,35.0,61.0,76.0,97.0,96.0,94.0,106.0,93.0,86.0,48.0,81.0,144.0,242.0,209.0,211.0,218.0,174.0,160.0,3
10.0,26.0,24.0,17.0,11.0,24.0,3.0,7.0,23.0,18.0,16.0,18.0,32.0,24.0,24.0,20.0,39.0,76.0,93.0,84.0,70.0,70.0,67.0,69.0,3
18.0,23.0,17.0,11.0,10.0,14.0,1.0,7.0,17.0,16.0,14.0,13.0,12.0,12.0,9.0,8.0,25.0,32.0,30.0,29.0,26.0,27.0,27.0,25.0,3
-38.0,-50.0,-54.0,-61.0,-54.0,-79.0,-79.0,-90.0,-73.0,-69.0,-75.0,-87.0,-98.0,-85.0,-58.0,-44.0,-216.0,-327.0,-285.0,-256.0,-217.0,-231.0,-229.0,-242.0,3
21.0,37.0,37.0,34.0,32.0,22.0,18.0,10.0,7.0,18.0,18.0,17.0,11.0,-3.0,-22.0,-40.0,0.0,13.0,9.0,11.0,7.0,-8.0,-22.0,-20.0,3
-53.0,-64.0,-70.0,-73.0,-66.0,-71.0,-54.0,-63.0,-67.0,-60.0,-55.0,-62.0,-88.0,-75.0,-77.0,-59.0,-70.0,25.0,-70.0,-55.0,-112.0,-91.0,-105.0,-91.0,3
45.0,48.0,44.0,37.0,32.0,31.0,28.0,10.0,39.0,36.0,33.0,27.0,15.0,6.0,6.0,45.0,27.0,32.0,31.0,27.0,20.0,13.0,11.0,5.0,3
13.0,17.0,18.0,16.0,19.0,11.0,-6.0,-4.0,10.0,13.0,15.0,17.0,19.0,25.0,28.0,14.0,4.0,11.0,13.0,14.0,12.0,3.0,-14.0,-14.0,3
-3.0,-3.0,-1.0,-1.0,4.0,0.0,-16.0,-15.0,3.0,2.0,4.0,10.0,21.0,33.0,44.0,31.0,3.0,1.0,3.0,5.0,11.0,12.0,5.0,3.0,3
26.0,28.0,24.0,23.0,29.0,31.0,26.0,28.0,28.0,30.0,32.0,33.0,34.0,36.0,37.0,43.0,27.0,28.0,28.0,30.0,33.0,32.0,27.0,22.0,3
25.0,29.0,28.0,23.0,20.0,6.0,-7.0,-12.0,18.0,25.0,28.0,29.0,25.0,15.0,-4.0,-3.0,2.0,-20.0,-32.0,-23.0,-8.0,9.0,19.0,27.0,3
2.0,10.0,8.0,3.0,-11.0,-21.0,-33.0,-23.0,-1.0,-8.0,-12.0,-17.0,-26.0,-31.0,-22.0,20.0,-12.0,-11.0,-10.0,-12.0,-21.0,-35.0,-48.0,-45.0,3
-8.0,-7.0,-8.0,-12.0,-6.0,11.0,-4.0,-4.0,-4.0,-1.0,1.0,3.0,4.0,12.0,28.0,23.0,7.0,11.0,7.0,8.0,10.0,16.0,25.0,27.0,3
29.0,17.0,7.0,2.0,-18.0,86.0,51.0,85.0,34.0,23.0,21.0,19.0,18.0,31.0,41.0,79.0,32.0,-11.0,-30.0,-25.0,-14.0,12.0,34.0,41.0,3
13.0,16.0,17.0,17.0,29.0,25.0,22.0,1.0,13.0,20.0,23.0,21.0,25.0,27.0,20.0,21.0,-8.0,-20.0,-34.0,-24.0,-23.0,-15.0,-6.0,-7.0,3
4.0,19.0,20.0,20.0,19.0,37.0,33.0,-10.0,3.0,11.0,14.0,16.0,14.0,9.0,5.0,-2.0,14.0,21.0,19.0,19.0,23.0,31.0,41.0,43.0,3
-36.0,-32.0,-31.0,-34.0,-40.0,-54.0,-76.0,-56.0,-40.0,-42.0,-44.0,-52.0,-62.0,-70.0,-60.0,-76.0,-33.0,-39.0,-41.0,-41.0,-44.0,-46.0,-35.0,-27.0,3
-28.0,-28.0,-29.0,-29.0,-31.0,-35.0,-31.0,-32.0,-35.0,-33.0,-35.0,-35.0,-41.0,-38.0,-36.0,-34.0,-89.0,-188.0,-181.0,-155.0,-133.0,-130.0,-123.0,-125.0,3
-39.0,-45.0,-42.0,-40.0,-41.0,-28.0,-23.0,-45.0,-32.0,-36.0,-35.0,-36.0,-38.0,-37.0,-43.0,-42.0,-35.0,-59.0,-58.0,-47.0,-39.0,-32.0,-33.0,-43.0,3
23.0,25.0,23.0,25.0,23.0,19.0,-2.0,0.0,14.0,18.0,16.0,12.0,6.0,-10.0,-23.0,-9.0,7.0,15.0,15.0,14.0,10.0,1.0,-17.0,-12.0,3
-4.0,1.0,-4.0,-7.0,-7.0,-7.0,1.0,1.0,-1.0,-4.0,-6.0,-8.0,-13.0,-13.0,-6.0,-13.0,-8.0,-9.0,-17.0,-13.0,-10.0,-8.0,-4.0,6.0,3
5.0,7.0,4.0,2.0,0.0,-1.0,2.0,0.0,2.0,1.0,1.0,0.0,0.0,0.0,0.0,1.0,3.0,6.0,3.0,3.0,5.0,3.0,4.0,5.0,3
-16.0,-13.0,-11.0,-7.0,-8.0,6.0,-3.0,-6.0,-11.0,-10.0,-8.0,-6.0,-8.0,-14.0,-30.0,-27.0,-5.0,-6.0,-6.0,-4.0,-3.0,-6.0,-6.0,-4.0,3
-37.0,-31.0,-23.0,-17.0,-33.0,8.0,-48.0,-65.0,-39.0,-38.0,-39.0,-43.0,-53.0,-70.0,-88.0,-60.0,-80.0,-128.0,-144.0,-121.0,-110.0,-104.0,-104.0,-118.0,3
-20.0,-13.0,-12.0,-9.0,-3.0,-9.0,-53.0,-76.0,-13.0,-15.0,-12.0,-10.0,-7.0,1.0,9.0,5.0,-5.0,-20.0,-28.0,-23.0,-22.0,-16.0,-6.0,-3.0,3
9.0,14.0,11.0,9.0,27.0,-25.0,48.0,41.0,0.0,3.0,4.0,2.0,-5.0,-12.0,-22.0,-14.0,-21.0,-24.0,-23.0,-14.0,-11.0,-22.0,-42.0,-37.0,3
-13.0,-21.0,-22.0,-24.0,-24.0,-16.0,-25.0,-8.0,-11.0,-13.0,-11.0,-8.0,-8.0,4.0,10.0,6.0,-9.0,-33.0,-43.0,-33.0,-23.0,-15.0,-3.0,10.0,3
-11.0,0.0,-7.0,13.0,-19.0,-3.0,-13.0,-10.0,-7.0,-4.0,-8.0,-15.0,-18.0,-24.0,-26.0,-12.0,-157.0,-291.0,-243.0,-207.0,-164.0,-186.0,-149.0,-162.0,3
-24.0,-20.0,-19.0,-15.0,-18.0,-17.0,-59.0,-69.0,-25.0,-21.0,-22.0,-23.0,-22.0,-24.0,-17.0,-10.0,-13.0,-16.0,-16.0,-14.0,-9.0,-6.0,-8.0,-15.0,3
-4.0,12.0,13.0,18.0,13.0,29.0,-40.0,-93.0,-30.0,-26.0,-30.0,-43.0,-72.0,-119.0,-160.0,-83.0,-56.0,-94.0,-114.0,-97.0,-113.0,-112.0,-93.0,-93.0,3
7.0,8.0,10.0,9.0,7.0,14.0,6.0,7.0,8.0,10.0,8.0,8.0,11.0,8.0,9.0,8.0,2.0,9.0,9.0,9.0,7.0,5.0,5.0,3.0,3
38.0,39.0,32.0,25.0,23.0,17.0,19.0,24.0,31.0,29.0,27.0,27.0,24.0,24.0,27.0,29.0,27.0,27.0,25.0,24.0,23.0,27.0,29.0,27.0,3
-18.0,-31.0,-31.0,-30.0,-32.0,-12.0,23.0,16.0,-11.0,-17.0,-29.0,-28.0,-26.0,-17.0,-10.0,-3.0,-18.0,-29.0,-30.0,-26.0,-28.0,-32.0,-35.0,-24.0,3
8.0,-3.0,-4.0,-10.0,-28.0,51.0,-3.0,10.0,-18.0,-2.0,2.0,-12.0,-31.0,-19.0,-22.0,-18.0,-41.0,-68.0,-98.0,-80.0,-64.0,-56.0,-64.0,-62.0,3
-25.0,-24.0,-20.0,-21.0,4.0,-3.0,30.0,19.0,-17.0,-15.0,-9.0,1.0,8.0,26.0,44.0,14.0,15.0,13.0,11.0,18.0,31.0,45.0,47.0,52.0,3
-72.0,-97.0,-97.0,-87.0,-20.0,-249.0,-22.0,-22.0,-112.0,-102.0,-99.0,-106.0,-132.0,-136.0,-130.0,-87.0,-160.0,-312.0,-335.0,-289.0,-259.0,-261.0,-242.0,-255.0,3
18.0,26.0,32.0,37.0,39.0,33.0,32.0,7.0,16.0,32.0,37.0,43.0,48.0,53.0,37.0,-11.0,24.0,35.0,35.0,42.0,47.0,43.0,29.0,34.0,3
-17.0,-10.0,-9.0,-12.0,-10.0,-9.0,-13.0,-23.0,-6.0,-6.0,-5.0,-6.0,-3.0,-5.0,-8.0,-12.0,9.0,25.0,29.0,25.0,21.0,18.0,19.0,20.0,3
-22.0,-23.0,-24.0,-20.0,-16.0,3.0,-7.0,-5.0,-26.0,-25.0,-22.0,-21.0,-20.0,-22.0,-29.0,-27.0,-17.0,-13.0,-12.0,-12.0,-15.0,-17.0,-20.0,-16.0,3
31.0,25.0,26.0,24.0,25.0,29.0,27.0,20.0,21.0,19.0,19.0,11.0,-2.0,-19.0,-41.0,-8.0,32.0,31.0,32.0,37.0,29.0,32.0,34.0,29.0,3
-3.0,-11.0,-13.0,-5.0,7.0,-3.0,44.0,65.0,24.0,35.0,33.0,29.0,35.0,31.0,36.0,43.0,-2.0,11.0,108.0,86.0,105.0,118.0,110.0,103.0,3
0.0,-9.0,-15.0,-20.0,-23.0,-11.0,15.0,-3.0,6.0,-9.0,-11.0,-16.0,-19.0,-6.0,10.0,34.0,28.0,15.0,11.0,11.0,5.0,25.0,56.0,62.0,3
-35.0,-33.0,-31.0,-27.0,-20.0,-12.0,-24.0,-32.0,-30.0,-28.0,-25.0,-21.0,-15.0,-9.0,-5.0,-16.0,-33.0,-28.0,-30.0,-26.0,-26.0,-31.0,-39.0,-41.0,3
-15.0,-16.0,-15.0,-15.0,-20.0,-11.0,-23.0,-24.0,-21.0,-22.0,-24.0,-24.0,-22.0,-25.0,-24.0,-20.0,-126.0,-252.0,-224.0,-179.0,-136.0,-135.0,-138.0,-147.0,3
-70.0,-74.0,-71.0,-73.0,-50.0,-111.0,-65.0,-89.0,-96.0,-88.0,-88.0,-94.0,-101.0,-95.0,-95.0,-81.0,-237.0,-362.0,-327.0,-283.0,-235.0,-241.0,-242.0,-259.0,3
-53.0,-54.0,-39.0,-34.0,4.0,-147.0,-83.0,-112.0,-82.0,-69.0,-66.0,-70.0,-82.0,-88.0,-70.0,-62.0,-142.0,-264.0,-276.0,-241.0,-223.0,-216.0,-205.0,-237.0,3
8.0,-30.0,-37.0,-44.0,-70.0,4.0,-49.0,-52.0,-53.0,-44.0,-42.0,-55.0,-93.0,-71.0,-75.0,-69.0,-116.0,-355.0,-386.0,-318.0,-280.0,-253.0,-267.0,-264.0,3
79.0,108.0,103.0,100.0,37.0,251.0,38.0,42.0,114.0,140.0,140.0,139.0,140.0,92.0,16.0,-30.0,178.0,331.0,378.0,341.0,324.0,327.0,252.0,262.0,3
9.0,-5.0,-8.0,-8.0,-7.0,6.0,27.0,52.0,20.0,8.0,1.0,5.0,19.0,43.0,71.0,80.0,2.0,-12.0,-13.0,-8.0,0.0,8.0,4.0,12.0,3
-37.0,-45.0,-37.0,-32.0,-21.0,2.0,23.0,6.0,-39.0,-32.0,-27.0,-22.0,-21.0,-20.0,-39.0,-50.0,-28.0,-37.0,-45.0,-41.0,-40.0,-33.0,-28.0,-11.0,3
56.0,54.0,51.0,46.0,24.0,20.0,-19.0,9.0,44.0,40.0,40.0,40.0,39.0,54.0,64.0,46.0,21.0,4.0,-3.0,5.0,4.0,-15.0,-41.0,-20.0,3
9.0,10.0,8.0,5.0,3.0,41.0,63.0,14.0,18.0,13.0,-2.0,4.0,8.0,15.0,20.0,31.0,7.0,-14.0,-13.0,-3.0,5.0,18.0,17.0,5.0,3
-4.0,-7.0,-4.0,0.0,3.0,-3.0,0.0,0.0,-3.0,0.0,0.0,1.0,2.0,0.0,-3.0,-5.0,-7.0,-3.0,-6.0,-4.0,-3.0,-5.0,-6.0,-8.0,3
6.0,5.0,5.0,3.0,7.0,5.0,4.0,6.0,4.0,4.0,4.0,4.0,7.0,5.0,7.0,8.0,-3.0,-3.0,-2.0,-2.0,-1.0,-1.0,0.0,-2.0,3
1.0,10.0,10.0,7.0,5.0,10.0,-5.0,-23.0,0.0,2.0,4.0,5.0,4.0,3.0,2.0,-6.0,11.0,11.0,14.0,11.0,12.0,13.0,20.0,15.0,3
-45.0,-68.0,-64.0,-74.0,40.0,-216.0,63.0,-7.0,-80.0,-70.0,-69.0,-70.0,-68.0,-73.0,-69.0,-47.0,-139.0,-297.0,-292.0,-248.0,-201.0,-180.0,-158.0,-182.0,3
21.0,10.0,0.0,0.0,41.0,-122.0,38.0,34.0,-20.0,-17.0,-18.0,-24.0,-31.0,-8.0,13.0,27.0,-148.0,-291.0,-271.0,-237.0,-204.0,-223.0,-210.0,-220.0,3
8.0,8.0,5.0,3.0,1.0,5.0,-5.0,5.0,9.0,8.0,11.0,12.0,13.0,14.0,17.0,21.0,15.0,16.0,15.0,14.0,14.0,18.0,23.0,29.0,3
-10.0,-14.0,-15.0,-15.0,-13.0,-9.0,-2.0,5.0,-12.0,-12.0,-12.0,-11.0,-13.0,-15.0,-21.0,-19.0,-10.0,-13.0,-16.0,-17.0,-20.0,-24.0,-18.0,-10.0,3
-57.0,-64.0,-65.0,-63.0,-56.0,-29.0,35.0,2.0,-47.0,-54.0,-56.0,-58.0,-63.0,-64.0,-68.0,-48.0,-58.0,-77.0,-83.0,-74.0,-65.0,-61.0,-58.0,-55.0,3
3.0,7.0,7.0,9.0,9.0,12.0,28.0,22.0,1.0,4.0,8.0,10.0,13.0,21.0,27.0,11.0,-2.0,7.0,5.0,8.0,9.0,8.0,-3.0,-8.0,3
-98.0,-103.0,-90.0,-111.0,-90.0,-137.0,-142.0,-168.0,-151.0,-118.0,-114.0,-129.0,-160.0,-170.0,-204.0,-228.0,-184.0,-260.0,-243.0,-210.0,-190.0,-194.0,-175.0,-197.0,3
-89.0,-99.0,-101.0,-96.0,-139.0,-35.0,-122.0,-122.0,-118.0,-113.0,-111.0,-123.0,-145.0,-131.0,-132.0,-118.0,-268.0,-449.0,-477.0,-419.0,-372.0,-396.0,-347.0,-357.0,3
-2.0,-20.0,-19.0,-28.0,7.0,-66.0,0.0,2.0,-15.0,-22.0,-17.0,-18.0,-25.0,-15.0,-5.0,15.0,-16.0,-33.0,-44.0,-43.0,-32.0,-24.0,-39.0,-38.0,3
-3.0,-3.0,-3.0,-4.0,1.0,13.0,3.0,0.0,0.0,0.0,-1.0,-4.0,-10.0,-15.0,-4.0,12.0,-14.0,-27.0,-33.0,-27.0,-23.0,-12.0,-3.0,-5.0,3
-35.0,-29.0,-19.0,-12.0,-15.0,-31.0,-42.0,-48.0,-38.0,-32.0,-30.0,-30.0,-34.0,-42.0,-54.0,-65.0,-45.0,-37.0,-35.0,-28.0,-28.0,-37.0,-54.0,-60.0,3
35.0,40.0,40.0,38.0,41.0,39.0,39.0,36.0,30.0,34.0,35.0,37.0,37.0,34.0,30.0,37.0,23.0,27.0,27.0,27.0,29.0,25.0,24.0,27.0,3
-18.0,-36.0,-35.0,-35.0,-32.0,-23.0,-14.0,-19.0,-19.0,-24.0,-26.0,-30.0,-39.0,-30.0,-15.0,0.0,-57.0,-115.0,-136.0,-119.0,-109.0,-109.0,-109.0,-106.0,3
-6.0,-11.0,-13.0,-19.0,-24.0,-30.0,-9.0,29.0,-6.0,-11.0,-11.0,-8.0,0.0,27.0,52.0,22.0,-14.0,-20.0,-25.0,-20.0,-12.0,5.0,-1.0,-11.0,3
-7.0,-10.0,-8.0,-6.0,5.0,57.0,63.0,32.0,1.0,2.0,5.0,10.0,14.0,27.0,29.0,24.0,9.0,8.0,3.0,1.0,0.0,6.0,12.0,23.0,3
-1.0,4.0,5.0,3.0,-1.0,10.0,7.0,2.0,19.0,10.0,8.0,10.0,19.0,17.0,19.0,24.0,31.0,54.0,64.0,55.0,46.0,44.0,46.0,48.0,3
46.0,47.0,50.0,43.0,42.0,27.0,13.0,23.0,23.0,31.0,32.0,27.0,14.0,-8.0,-27.0,-30.0,9.0,4.0,-3.0,0.0,-3.0,-6.0,-6.0,-2.0,3
10.0,16.0,19.0,17.0,17.0,17.0,14.0,14.0,21.0,21.0,20.0,21.0,26.0,22.0,22.0,22.0,23.0,41.0,48.0,42.0,36.0,35.0,35.0,35.0,3
-17.0,-18.0,-16.0,-16.0,-10.0,1.0,25.0,-5.0,-21.0,-20.0,-19.0,-22.0,-25.0,-32.0,-44.0,-43.0,-12.0,-4.0,-2.0,-5.0,-9.0,-10.0,-3.0,1.0,3
5.0,-6.0,-20.0,-22.0,34.0,-152.0,17.0,3.0,-39.0,-27.0,-29.0,-30.0,-36.0,-35.0,-33.0,-27.0,-79.0,-171.0,-149.0,-117.0,-75.0,-80.0,-52.0,-63.0,3
26.0,15.0,11.0,7.0,8.0,12.0,45.0,52.0,30.0,24.0,17.0,16.0,20.0,29.0,40.0,41.0,27.0,28.0,24.0,19.0,19.0,23.0,28.0,34.0,3
24.0,19.0,17.0,16.0,18.0,13.0,34.0,49.0,19.0,20.0,21.0,19.0,25.0,30.0,26.0,27.0,17.0,18.0,16.0,18.0,20.0,24.0,23.0,21.0,3
-41.0,-54.0,-51.0,-40.0,-78.0,36.0,-50.0,-41.0,-59.0,-57.0,-56.0,-59.0,-66.0,-63.0,-72.0,-76.0,-80.0,-72.0,-93.0,-98.0,-96.0,-103.0,-93.0,-91.0,3
-48.0,-61.0,-62.0,-59.0,-67.0,-47.0,-71.0,-28.0,-42.0,-54.0,-55.0,-56.0,-58.0,-51.0,-48.0,-4.0,-60.0,-76.0,-81.0,-79.0,-75.0,-68.0,-65.0,-75.0,3
-161.0,-167.0,-173.0,-169.0,-177.0,-172.0,-181.0,-184.0,-218.0,-215.0,-221.0,-242.0,-254.0,-247.0,-246.0,-229.0,-916.0,-1930.0,-1930.0,-1571.0,-1222.0,-1198.0,-1214.0,-1276.0,3
29.0,25.0,29.0,31.0,21.0,19.0,6.0,-30.0,10.0,22.0,7.0,8.0,3.0,-15.0,-32.0,-39.0,-9.0,-22.0,-18.0,-12.0,-17.0,-26.0,-43.0,-33.0,3
-77.0,-83.0,-83.0,-78.0,-82.0,-83.0,-74.0,-84.0,-100.0,-94.0,-89.0,-86.0,-79.0,-53.0,-33.0,-47.0,-157.0,-205.0,-209.0,-182.0,-171.0,-189.0,-208.0,-221.0,3
22.0,28.0,31.0,32.0,29.0,15.0,-6.0,20.0,18.0,24.0,26.0,29.0,31.0,33.0,29.0,14.0,10.0,16.0,17.0,18.0,21.0,22.0,19.0,10.0,3
14.0,10.0,9.0,8.0,-3.0,-35.0,-38.0,21.0,-14.0,-18.0,-19.0,-21.0,-17.0,18.0,60.0,61.0,-142.0,-289.0,-307.0,-233.0,-208.0,-204.0,-227.0,-260.0,3
16.0,18.0,20.0,21.0,23.0,16.0,6.0,7.0,22.0,23.0,24.0,25.0,28.0,31.0,40.0,39.0,38.0,55.0,54.0,50.0,43.0,44.0,45.0,50.0,3
42.0,48.0,40.0,32.0,33.0,36.0,34.0,33.0,32.0,33.0,30.0,27.0,25.0,18.0,13.0,23.0,17.0,25.0,21.0,18.0,13.0,7.0,12.0,11.0,3
28.0,47.0,42.0,29.0,28.0,37.0,18.0,22.0,35.0,32.0,32.0,32.0,50.0,40.0,38.0,34.0,52.0,101.0,114.0,104.0,85.0,90.0,82.0,85.0,3
-7.0,-8.0,-9.0,-8.0,-12.0,-27.0,-42.0,-29.0,-7.0,-10.0,-13.0,-18.0,-29.0,-37.0,-39.0,-20.0,-26.0,-24.0,-30.0,-27.0,-29.0,-31.0,-29.0,-35.0,3
1.0,-12.0,-9.0,-6.0,-12.0,-6.0,-9.0,-18.0,-9.0,-6.0,-25.0,-27.0,-34.0,-46.0,-47.0,-53.0,-27.0,-44.0,-45.0,-44.0,-54.0,-67.0,-76.0,-60.0,3
29.0,23.0,17.0,19.0,21.0,26.0,38.0,46.0,28.0,28.0,27.0,26.0,25.0,22.0,19.0,30.0,31.0,29.0,26.0,22.0,21.0,27.0,33.0,46.0,3
-65.0,-84.0,-78.0,-86.0,19.0,-330.0,-37.0,-68.0,-123.0,-110.0,-108.0,-114.0,-115.0,-111.0,-91.0,-111.0,-223.0,-369.0,-348.0,-301.0,-256.0,-268.0,-283.0,-317.0,3
-21.0,-21.0,-16.0,-11.0,-4.0,4.0,12.0,-9.0,-23.0,-20.0,-17.0,-18.0,-24.0,-37.0,-63.0,-72.0,-29.0,-40.0,-37.0,-29.0,-24.0,-28.0,-43.0,-41.0,3
15.0,18.0,21.0,22.0,20.0,26.0,43.0,29.0,14.0,10.0,12.0,13.0,18.0,21.0,31.0,31.0,16.0,17.0,15.0,19.0,23.0,31.0,31.0,29.0,3
18.0,10.0,10.0,9.0,5.0,29.0,10.0,15.0,14.0,10.0,15.0,21.0,24.0,40.0,35.0,26.0,0.0,-14.0,-17.0,-13.0,-10.0,-7.0,-8.0,-10.0,3
17.0,15.0,15.0,15.0,16.0,19.0,17.0,20.0,15.0,15.0,16.0,17.0,16.0,19.0,19.0,19.0,9.0,10.0,10.0,9.0,8.0,8.0,9.0,9.0,3
-3.0,-8.0,-6.0,-5.0,-7.0,-8.0,3.0,19.0,-1.0,-3.0,-2.0,0.0,4.0,13.0,19.0,-2.0,9.0,12.0,13.0,14.0,15.0,17.0,17.0,14.0,3
38.0,43.0,40.0,37.0,35.0,48.0,53.0,47.0,36.0,34.0,35.0,38.0,42.0,48.0,51.0,39.0,32.0,29.0,29.0,31.0,32.0,37.0,36.0,32.0,3
23.0,14.0,14.0,22.0,-2.0,6.0,-51.0,-6.0,-3.0,-4.0,-5.0,-9.0,-19.0,-33.0,-37.0,-31.0,-34.0,-73.0,-87.0,-74.0,-74.0,-75.0,-74.0,-84.0,3
39.0,34.0,29.0,27.0,28.0,15.0,37.0,62.0,43.0,35.0,34.0,36.0,49.0,76.0,104.0,78.0,29.0,27.0,31.0,31.0,31.0,32.0,21.0,26.0,3
5.0,2.0,-1.0,-6.0,-4.0,-3.0,16.0,22.0,2.0,-1.0,1.0,7.0,15.0,32.0,47.0,34.0,-7.0,-1.0,3.0,6.0,8.0,13.0,9.0,-18.0,3
30.0,32.0,27.0,20.0,6.0,-14.0,-16.0,-4.0,13.0,13.0,8.0,2.0,-10.0,-28.0,-42.0,-43.0,-1.0,4.0,5.0,3.0,-6.0,-23.0,-32.0,-21.0,3
1.0,10.0,12.0,11.0,24.0,-14.0,-36.0,-16.0,-11.0,-6.0,-4.0,-8.0,-16.0,-32.0,-36.0,-62.0,13.0,20.0,13.0,13.0,10.0,6.0,19.0,31.0,3
-13.0,-34.0,-38.0,-33.0,-37.0,-12.0,-21.0,-20.0,-58.0,-46.0,-41.0,-44.0,-65.0,-66.0,-77.0,-82.0,-96.0,-204.0,-228.0,-198.0,-186.0,-196.0,-192.0,-189.0,3
-6.0,1.0,4.0,5.0,1.0,-1.0,-29.0,-55.0,-9.0,-6.0,-6.0,-8.0,-17.0,-28.0,-29.0,-42.0,-2.0,-4.0,-1.0,-2.0,-3.0,-3.0,-7.0,-3.0,3
24.0,16.0,11.0,34.0,19.0,19.0,21.0,22.0,17.0,17.0,13.0,10.0,8.0,7.0,6.0,16.0,-93.0,-132.0,-79.0,-58.0,-39.0,-56.0,-25.0,-41.0,3
-1.0,-3.0,-3.0,3.0,3.0,10.0,-8.0,-19.0,6.0,-3.0,-1.0,2.0,10.0,23.0,24.0,43.0,-2.0,-5.0,-8.0,-8.0,-2.0,1.0,6.0,12.0,3
25.0,27.0,25.0,21.0,19.0,22.0,14.0,28.0,32.0,29.0,26.0,23.0,22.0,19.0,15.0,34.0,37.0,36.0,32.0,28.0,29.0,31.0,34.0,38.0,3
-5.0,-2.0,-5.0,-8.0,-7.0,-8.0,0.0,-1.0,2.0,0.0,0.0,-2.0,2.0,0.0,-1.0,-4.0,12.0,25.0,27.0,24.0,19.0,19.0,21.0,22.0,3
-3.0,-8.0,-4.0,-2.0,3.0,5.0,-7.0,-8.0,-4.0,-1.0,0.0,-4.0,-2.0,-10.0,-21.0,-24.0,1.0,5.0,5.0,4.0,3.0,2.0,3.0,3.0,3
-2.0,-2.0,-3.0,-4.0,-3.0,-9.0,3.0,-4.0,2.0,1.0,3.0,3.0,3.0,3.0,-4.0,-2.0,7.0,12.0,11.0,13.0,16.0,19.0,17.0,13.0,3
-13.0,-14.0,-14.0,-14.0,-16.0,-16.0,-19.0,-21.0,-19.0,-22.0,-23.0,-24.0,-29.0,-27.0,-29.0,-23.0,-132.0,-234.0,-205.0,-158.0,-126.0,-125.0,-119.0,-128.0,3
29.0,26.0,28.0,29.0,17.0,-7.0,-26.0,5.0,19.0,19.0,19.0,15.0,12.0,10.0,27.0,10.0,7.0,8.0,8.0,5.0,-2.0,-8.0,-13.0,-11.0,3
4.0,-8.0,-12.0,-13.0,-11.0,6.0,25.0,25.0,12.0,-3.0,-3.0,-4.0,-2.0,19.0,40.0,60.0,34.0,23.0,21.0,25.0,21.0,39.0,54.0,54.0,3
-49.0,-68.0,-72.0,-78.0,-81.0,-98.0,-106.0,-26.0,-28.0,-49.0,-53.0,-54.0,-49.0,-19.0,21.0,43.0,-32.0,-61.0,-77.0,-72.0,-69.0,-45.0,-10.0,13.0,3
25.0,19.0,13.0,4.0,-19.0,68.0,6.0,21.0,-5.0,10.0,13.0,-1.0,-20.0,-7.0,-11.0,-8.0,-37.0,-65.0,-93.0,-77.0,-58.0,-54.0,-59.0,-59.0,3
73.0,75.0,56.0,37.0,39.0,195.0,174.0,203.0,156.0,131.0,127.0,135.0,192.0,270.0,368.0,334.0,248.0,524.0,578.0,478.0,439.0,507.0,566.0,574.0,3
16.0,17.0,16.0,17.0,19.0,17.0,8.0,10.0,15.0,17.0,17.0,16.0,15.0,17.0,15.0,14.0,12.0,12.0,9.0,10.0,13.0,17.0,6.0,8.0,3
30.0,10.0,1.0,-9.0,1.0,-101.0,-8.0,55.0,-8.0,-15.0,-19.0,-29.0,-28.0,-17.0,14.0,30.0,-63.0,-176.0,-194.0,-162.0,-147.0,-169.0,-193.0,-169.0,3
-14.0,-21.0,-16.0,-15.0,-23.0,1.0,-26.0,-12.0,-24.0,-28.0,-25.0,-24.0,-20.0,6.0,39.0,-1.0,-69.0,-103.0,-115.0,-94.0,-89.0,-100.0,-133.0,-125.0,3
-38.0,-42.0,-43.0,-40.0,-37.0,-42.0,-31.0,-26.0,-33.0,-32.0,-29.0,-30.0,-29.0,-27.0,-27.0,-29.0,-28.0,-20.0,-21.0,-21.0,-20.0,-20.0,-23.0,-21.0,3
-7.0,-10.0,-6.0,-4.0,-31.0,-21.0,-75.0,-47.0,-36.0,-34.0,-34.0,-38.0,-48.0,-43.0,-1.0,-5.0,-75.0,-122.0,-137.0,-122.0,-127.0,-146.0,-140.0,-132.0,3
17.0,37.0,38.0,64.0,56.0,236.0,204.0,78.0,57.0,81.0,84.0,85.0,97.0,67.0,-3.0,-19.0,215.0,439.0,503.0,416.0,368.0,384.0,385.0,380.0,3
16.0,12.0,14.0,16.0,8.0,16.0,9.0,5.0,7.0,7.0,5.0,3.0,7.0,4.0,0.0,4.0,-33.0,-59.0,-21.0,-26.0,-22.0,-37.0,-16.0,-25.0,3
-5.0,1.0,2.0,0.0,-2.0,13.0,10.0,-1.0,-25.0,-18.0,-16.0,-17.0,-26.0,-39.0,-56.0,-59.0,-49.0,-87.0,-105.0,-79.0,-77.0,-75.0,-84.0,-84.0,3
-14.0,-25.0,-25.0,-25.0,-47.0,-40.0,-52.0,-19.0,-60.0,-57.0,-59.0,-67.0,-80.0,-73.0,-52.0,-34.0,-185.0,-300.0,-310.0,-254.0,-243.0,-261.0,-276.0,-292.0,3
-96.0,-121.0,-127.0,-122.0,-63.0,-188.0,-56.0,-53.0,-96.0,-118.0,-119.0,-121.0,-97.0,-16.0,88.0,66.0,-202.0,-310.0,-253.0,-227.0,-166.0,-156.0,-124.0,-171.0,3
-17.0,-26.0,-32.0,-33.0,-38.0,-44.0,-51.0,-40.0,-44.0,-44.0,-42.0,-40.0,-32.0,8.0,59.0,58.0,-167.0,-306.0,-315.0,-247.0,-206.0,-199.0,-192.0,-225.0,3
51.0,56.0,52.0,46.0,35.0,22.0,13.0,32.0,38.0,40.0,38.0,35.0,26.0,11.0,-2.0,15.0,29.0,27.0,31.0,29.0,25.0,19.0,11.0,12.0,3
-5.0,-4.0,-7.0,-11.0,-16.0,-19.0,-27.0,-18.0,-3.0,-4.0,-2.0,0.0,6.0,15.0,23.0,32.0,-3.0,-4.0,-3.0,-1.0,1.0,1.0,-3.0,-10.0,3
47.0,43.0,37.0,37.0,37.0,46.0,66.0,82.0,50.0,44.0,43.0,46.0,53.0,66.0,91.0,93.0,37.0,25.0,27.0,30.0,35.0,41.0,30.0,25.0,3
4.0,0.0,6.0,7.0,-4.0,-21.0,-32.0,-17.0,-7.0,-3.0,-4.0,-7.0,-15.0,-27.0,-39.0,-42.0,-10.0,-6.0,-3.0,-6.0,-10.0,-15.0,-17.0,-15.0,3
17.0,26.0,25.0,23.0,19.0,27.0,16.0,15.0,29.0,27.0,24.0,26.0,35.0,29.0,30.0,28.0,38.0,64.0,75.0,67.0,57.0,57.0,58.0,58.0,3
46.0,50.0,46.0,45.0,51.0,76.0,54.0,39.0,48.0,51.0,54.0,59.0,70.0,83.0,74.0,59.0,48.0,43.0,42.0,43.0,54.0,91.0,126.0,87.0,3
-88.0,-96.0,-101.0,-109.0,-73.0,-160.0,-75.0,-112.0,-104.0,-103.0,-103.0,-108.0,-119.0,-105.0,-94.0,-46.0,-249.0,-408.0,-402.0,-345.0,-297.0,-297.0,-283.0,-293.0,3
7.0,8.0,6.0,2.0,0.0,5.0,0.0,-2.0,4.0,3.0,3.0,2.0,1.0,1.0,2.0,0.0,7.0,7.0,7.0,6.0,6.0,6.0,9.0,8.0,3
14.0,20.0,16.0,11.0,11.0,20.0,37.0,20.0,9.0,10.0,11.0,13.0,12.0,6.0,-3.0,-7.0,17.0,17.0,21.0,22.0,23.0,25.0,25.0,23.0,3
-45.0,-29.0,-21.0,-12.0,18.0,-132.0,-76.0,-165.0,-145.0,-97.0,-88.0,-93.0,-115.0,-128.0,-156.0,-274.0,-252.0,-347.0,-341.0,-291.0,-271.0,-347.0,-442.0,-408.0,3
-82.0,-115.0,-124.0,-112.0,-132.0,-88.0,-91.0,-106.0,-146.0,-133.0,-130.0,-148.0,-161.0,-155.0,-155.0,-142.0,-450.0,-743.0,-772.0,-617.0,-511.0,-495.0,-527.0,-544.0,3
-30.0,-56.0,-50.0,-50.0,46.0,-259.0,-25.0,-28.0,-74.0,-61.0,-63.0,-77.0,-101.0,-120.0,-127.0,-75.0,-160.0,-296.0,-266.0,-237.0,-200.0,-203.0,-187.0,-231.0,3
-100.0,-135.0,-128.0,-144.0,-89.0,-227.0,-98.0,-83.0,-136.0,-139.0,-134.0,-142.0,-160.0,-137.0,-110.0,-80.0,-169.0,-248.0,-273.0,-229.0,-215.0,-207.0,-178.0,-191.0,3
1.0,3.0,5.0,7.0,12.0,17.0,14.0,3.0,-1.0,3.0,7.0,9.0,4.0,3.0,-7.0,2.0,-26.0,-74.0,-88.0,-63.0,-60.0,-44.0,-43.0,-40.0,3
40.0,37.0,35.0,31.0,17.0,19.0,37.0,35.0,37.0,33.0,20.0,18.0,12.0,7.0,5.0,4.0,25.0,14.0,14.0,19.0,21.0,29.0,29.0,25.0,3
64.0,78.0,81.0,82.0,83.0,19.0,-51.0,35.0,103.0,112.0,113.0,114.0,125.0,106.0,108.0,85.0,208.0,405.0,480.0,405.0,388.0,380.0,300.0,303.0,3
-24.0,-31.0,-31.0,-35.0,-37.0,-38.0,-40.0,-44.0,-18.0,-30.0,-37.0,-48.0,-58.0,-72.0,-57.0,-7.0,-20.0,-21.0,-23.0,-26.0,-29.0,-28.0,-25.0,-28.0,3
6.0,-11.0,-17.0,-19.0,-40.0,1.0,-29.0,0.0,2.0,-5.0,-10.0,-17.0,-23.0,-20.0,-3.0,16.0,-4.0,-54.0,-73.0,-67.0,-65.0,-48.0,-17.0,-7.0,3
4.0,7.0,8.0,9.0,7.0,-3.0,-6.0,-21.0,-3.0,0.0,2.0,-4.0,-11.0,-26.0,-44.0,-35.0,-6.0,2.0,3.0,1.0,-6.0,-19.0,-26.0,-19.0,3
0.0,0.0,1.0,2.0,2.0,7.0,6.0,4.0,0.0,1.0,1.0,2.0,1.0,3.0,2.0,4.0,1.0,5.0,4.0,3.0,3.0,1.0,1.0,2.0,3
-17.0,-16.0,-17.0,-17.0,-19.0,-20.0,-16.0,-15.0,-12.0,-15.0,-15.0,-15.0,-14.0,-12.0,-7.0,-2.0,-8.0,-7.0,-9.0,-10.0,-9.0,-8.0,-8.0,-5.0,3
19.0,12.0,15.0,14.0,24.0,6.0,54.0,43.0,-2.0,-10.0,23.0,18.0,7.0,2.0,-2.0,-12.0,-5.0,-12.0,-28.0,-19.0,-18.0,-5.0,-3.0,6.0,3
-9.0,-15.0,-20.0,-19.0,-28.0,-27.0,-35.0,-34.0,-27.0,-38.0,-37.0,-38.0,-42.0,-34.0,-20.0,-22.0,-120.0,-289.0,-278.0,-229.0,-185.0,-190.0,-186.0,-193.0,3
3.0,-4.0,-9.0,-20.0,-25.0,-128.0,-48.0,-37.0,-58.0,-47.0,-50.0,-63.0,-81.0,-93.0,-104.0,-84.0,-219.0,-365.0,-370.0,-313.0,-286.0,-303.0,-300.0,-303.0,3
12.0,8.0,7.0,29.0,15.0,14.0,17.0,18.0,15.0,14.0,10.0,8.0,4.0,5.0,2.0,13.0,-111.0,-158.0,-105.0,-76.0,-51.0,-65.0,-36.0,-53.0,3
13.0,14.0,7.0,-3.0,-23.0,-12.0,-17.0,-1.0,18.0,0.0,-4.0,-9.0,-19.0,-12.0,5.0,35.0,13.0,-5.0,-14.0,-15.0,-16.0,-4.0,20.0,27.0,3
19.0,13.0,8.0,9.0,-12.0,124.0,56.0,7.0,10.0,5.0,10.0,16.0,20.0,48.0,66.0,73.0,-4.0,-65.0,-82.0,-58.0,-35.0,-8.0,-6.0,-24.0,3
31.0,9.0,0.0,-13.0,-23.0,-94.0,-52.0,-13.0,-5.0,-14.0,-19.0,-31.0,-46.0,-61.0,-65.0,-8.0,-36.0,-153.0,-174.0,-150.0,-131.0,-103.0,-33.0,-32.0,3
-24.0,-30.0,-27.0,-22.0,-8.0,4.0,-2.0,-6.0,-23.0,-21.0,-22.0,-22.0,-32.0,-47.0,-61.0,-53.0,-32.0,-28.0,-29.0,-31.0,-31.0,-29.0,-22.0,-27.0,3
-5.0,-2.0,0.0,-2.0,-3.0,-14.0,-37.0,-35.0,-1.0,0.0,1.0,3.0,8.0,14.0,30.0,30.0,-5.0,-4.0,-1.0,3.0,9.0,15.0,16.0,8.0,3
40.0,40.0,34.0,39.0,31.0,29.0,32.0,32.0,37.0,33.0,31.0,29.0,27.0,28.0,29.0,32.0,12.0,0.0,5.0,8.0,11.0,8.0,16.0,14.0,3
-39.0,-41.0,-43.0,-41.0,-24.0,9.0,-15.0,-30.0,-22.0,-28.0,-24.0,-13.0,5.0,31.0,50.0,30.0,-9.0,-16.0,-14.0,-12.0,-4.0,9.0,23.0,15.0,3
-17.0,-19.0,-20.0,-22.0,-27.0,-23.0,-7.0,-10.0,-13.0,-19.0,-22.0,-24.0,-27.0,-27.0,-25.0,-24.0,-8.0,-12.0,-12.0,-14.0,-14.0,-13.0,-6.0,3.0,3
-30.0,-11.0,3.0,9.0,-5.0,-3.0,-53.0,-89.0,-76.0,-47.0,-40.0,-42.0,-64.0,-107.0,-185.0,-248.0,-107.0,-144.0,-155.0,-122.0,-125.0,-148.0,-173.0,-169.0,3
-27.0,-29.0,-33.0,-25.0,-11.0,-31.0,2.0,51.0,7.0,18.0,16.0,15.0,27.0,26.0,27.0,40.0,-9.0,6.0,102.0,82.0,99.0,108.0,96.0,92.0,3
99.0,95.0,91.0,90.0,74.0,136.0,85.0,66.0,84.0,80.0,77.0,68.0,62.0,53.0,52.0,66.0,68.0,57.0,47.0,45.0,40.0,44.0,53.0,56.0,3
25.0,27.0,30.0,33.0,19.0,38.0,-11.0,18.0,16.0,22.0,22.0,23.0,19.0,15.0,8.0,5.0,6.0,-12.0,-20.0,-10.0,-3.0,8.0,12.0,6.0,3
-4.0,-5.0,-6.0,-6.0,-1.0,8.0,0.0,2.0,1.0,-1.0,1.0,4.0,11.0,29.0,43.0,33.0,7.0,-4.0,-1.0,1.0,8.0,17.0,20.0,9.0,3
11.0,-5.0,-4.0,-11.0,-7.0,17.0,3.0,13.0,-16.0,3.0,7.0,-5.0,-21.0,-11.0,-11.0,-7.0,-61.0,-156.0,-171.0,-125.0,-88.0,-74.0,-89.0,-93.0,3
-24.0,-21.0,-16.0,-7.0,-55.0,160.0,-6.0,-33.0,-22.0,-16.0,-8.0,-4.0,-9.0,-22.0,-57.0,-62.0,-3.0,-15.0,-15.0,-7.0,0.0,4.0,5.0,7.0,3
-56.0,-52.0,-44.0,-37.0,-48.0,-48.0,-72.0,-55.0,-53.0,-54.0,-56.0,-61.0,-77.0,-90.0,-82.0,-63.0,-42.0,-45.0,-44.0,-45.0,-50.0,-33.0,-3.0,-15.0,3
25.0,25.0,20.0,17.0,12.0,13.0,-7.0,-6.0,23.0,21.0,15.0,12.0,10.0,0.0,-19.0,-14.0,15.0,10.0,7.0,11.0,12.0,13.0,12.0,9.0,3
27.0,33.0,31.0,29.0,19.0,10.0,25.0,11.0,28.0,26.0,25.0,18.0,17.0,13.0,16.0,19.0,38.0,34.0,34.0,30.0,25.0,23.0,34.0,46.0,3
-35.0,-43.0,-42.0,-35.0,-35.0,-32.0,-37.0,-44.0,-40.0,-48.0,-47.0,-46.0,-50.0,-47.0,-45.0,-41.0,-111.0,-233.0,-227.0,-193.0,-159.0,-161.0,-154.0,-160.0,3
25.0,16.0,13.0,14.0,24.0,13.0,35.0,48.0,27.0,38.0,36.0,32.0,33.0,29.0,27.0,28.0,-19.0,-46.0,29.0,16.0,37.0,34.0,44.0,40.0,3
-8.0,-37.0,-38.0,-49.0,-19.0,-74.0,-9.0,-20.0,-46.0,-46.0,-44.0,-46.0,-72.0,-54.0,-52.0,-45.0,-48.0,-160.0,-180.0,-152.0,-153.0,-129.0,-143.0,-137.0,3
-25.0,-32.0,-27.0,-17.0,-20.0,-15.0,-28.0,-23.0,-14.0,-14.0,-25.0,-21.0,-21.0,-19.0,-14.0,-2.0,-26.0,-36.0,-35.0,-29.0,-31.0,-39.0,-54.0,-51.0,3
27.0,2.0,-4.0,-11.0,-16.0,2.0,-4.0,2.0,-26.0,-12.0,-10.0,-23.0,-33.0,-35.0,-36.0,-24.0,-121.0,-216.0,-245.0,-193.0,-159.0,-147.0,-158.0,-160.0,3
46.0,29.0,30.0,16.0,54.0,-35.0,45.0,48.0,15.0,20.0,25.0,23.0,9.0,17.0,20.0,20.0,5.0,-11.0,-22.0,-19.0,-7.0,2.0,-14.0,-12.0,3
12.0,18.0,15.0,9.0,3.0,5.0,23.0,23.0,11.0,2.0,-6.0,-12.0,-18.0,-9.0,25.0,19.0,17.0,11.0,8.0,1.0,-5.0,-12.0,0.0,23.0,3
-52.0,-79.0,-76.0,-87.0,17.0,-312.0,-23.0,-30.0,-88.0,-86.0,-89.0,-96.0,-105.0,-95.0,-60.0,-55.0,-151.0,-315.0,-299.0,-258.0,-208.0,-185.0,-154.0,-160.0,3
-41.0,-45.0,-43.0,-45.0,-51.0,-47.0,-59.0,-64.0,-68.0,-67.0,-66.0,-70.0,-78.0,-73.0,-82.0,-101.0,-160.0,-322.0,-342.0,-271.0,-248.0,-237.0,-235.0,-231.0,3
-37.0,-39.0,-35.0,-33.0,-36.0,-16.0,-33.0,-49.0,-39.0,-37.0,-35.0,-34.0,-36.0,-28.0,-21.0,-29.0,-59.0,-85.0,-98.0,-79.0,-71.0,-70.0,-90.0,-85.0,3
27.0,39.0,39.0,37.0,23.0,-37.0,-73.0,-24.0,23.0,40.0,35.0,27.0,27.0,22.0,38.0,0.0,-27.0,-27.0,63.0,40.0,44.0,33.0,32.0,29.0,3
23.0,19.0,18.0,17.0,23.0,14.0,21.0,38.0,25.0,27.0,29.0,29.0,32.0,34.0,33.0,35.0,27.0,32.0,31.0,30.0,31.0,32.0,28.0,29.0,3
18.0,15.0,17.0,15.0,18.0,28.0,30.0,24.0,19.0,20.0,20.0,20.0,17.0,13.0,1.0,7.0,23.0,7.0,6.0,7.0,7.0,8.0,15.0,21.0,3
3.0,6.0,5.0,1.0,-11.0,-25.0,-33.0,-20.0,-10.0,-10.0,-15.0,-24.0,-35.0,-49.0,-57.0,-65.0,-4.0,-4.0,-3.0,-8.0,-10.0,-9.0,-5.0,2.0,3
-32.0,-31.0,-26.0,-22.0,-20.0,-14.0,-16.0,-20.0,-15.0,-16.0,-16.0,-14.0,-8.0,-10.0,-12.0,-9.0,0.0,17.0,23.0,19.0,15.0,12.0,11.0,13.0,3
14.0,6.0,6.0,12.0,-12.0,35.0,-9.0,-10.0,-5.0,0.0,0.0,1.0,-6.0,-16.0,-27.0,-23.0,-57.0,-113.0,-125.0,-96.0,-83.0,-79.0,-81.0,-84.0,3
12.0,14.0,6.0,2.0,1.0,5.0,-17.0,-30.0,22.0,19.0,21.0,27.0,36.0,54.0,89.0,107.0,21.0,15.0,27.0,28.0,32.0,48.0,45.0,33.0,3
5.0,-2.0,-6.0,-12.0,-9.0,-2.0,7.0,17.0,1.0,-1.0,0.0,-1.0,-4.0,-6.0,-7.0,1.0,-22.0,-36.0,-47.0,-39.0,-32.0,-32.0,-39.0,-36.0,3
-45.0,-47.0,-46.0,-43.0,-49.0,-45.0,-47.0,-54.0,-59.0,-60.0,-62.0,-64.0,-71.0,-71.0,-72.0,-64.0,-204.0,-433.0,-398.0,-331.0,-273.0,-280.0,-257.0,-264.0,3
17.0,17.0,21.0,22.0,17.0,-7.0,14.0,13.0,2.0,6.0,5.0,1.0,-11.0,-33.0,-57.0,-45.0,1.0,8.0,5.0,8.0,10.0,10.0,15.0,10.0,3
-9.0,-17.0,-17.0,-17.0,-26.0,10.0,-8.0,-8.0,-33.0,-31.0,-31.0,-33.0,-33.0,-32.0,-32.0,-28.0,-103.0,-182.0,-195.0,-163.0,-150.0,-148.0,-151.0,-164.0,3
57.0,52.0,50.0,55.0,36.0,124.0,56.0,100.0,97.0,112.0,111.0,108.0,117.0,96.0,69.0,28.0,185.0,319.0,409.0,343.0,337.0,358.0,349.0,351.0,3
15.0,4.0,8.0,10.0,11.0,13.0,29.0,39.0,16.0,14.0,15.0,17.0,24.0,43.0,71.0,51.0,3.0,3.0,3.0,1.0,-2.0,-8.0,-20.0,-8.0,3
8.0,-8.0,-13.0,-18.0,-41.0,-63.0,-104.0,-72.0,-58.0,-55.0,-56.0,-68.0,-88.0,-112.0,-123.0,-83.0,-146.0,-239.0,-234.0,-209.0,-186.0,-193.0,-165.0,-184.0,3
-5.0,7.0,2.0,1.0,-6.0,-7.0,-37.0,-60.0,-2.0,-5.0,-6.0,-7.0,-10.0,-14.0,-18.0,10.0,1.0,5.0,2.0,6.0,7.0,12.0,10.0,-8.0,3
-7.0,-3.0,-1.0,0.0,4.0,8.0,9.0,-1.0,-8.0,-6.0,-4.0,-3.0,-5.0,-8.0,-16.0,-15.0,-12.0,-6.0,-4.0,-6.0,-12.0,-24.0,-37.0,-35.0,3
-33.0,-26.0,-23.0,-20.0,-18.0,-4.0,3.0,-33.0,-20.0,-21.0,-17.0,-11.0,-1.0,12.0,23.0,28.0,-25.0,-12.0,-15.0,-14.0,-14.0,-24.0,-41.0,-35.0,3
22.0,21.0,24.0,21.0,25.0,13.0,3.0,14.0,12.0,20.0,17.0,16.0,11.0,3.0,0.0,-3.0,1.0,-2.0,-8.0,-6.0,-7.0,-9.0,-8.0,-6.0,3
24.0,32.0,28.0,21.0,16.0,21.0,12.0,12.0,20.0,21.0,19.0,18.0,18.0,16.0,14.0,13.0,14.0,21.0,21.0,19.0,17.0,14.0,13.0,13.0,3
-9.0,-10.0,-12.0,-17.0,-21.0,-30.0,-29.0,-16.0,-12.0,-14.0,-17.0,-20.0,-23.0,-24.0,-13.0,-8.0,-8.0,-11.0,-11.0,-13.0,-10.0,-3.0,11.0,8.0,3
66.0,70.0,57.0,55.0,21.0,147.0,50.0,47.0,109.0,103.0,96.0,88.0,102.0,111.0,130.0,161.0,190.0,313.0,391.0,315.0,274.0,274.0,288.0,321.0,3
3.0,1.0,5.0,4.0,3.0,-10.0,-20.0,-2.0,-1.0,0.0,0.0,-1.0,-4.0,-5.0,1.0,12.0,-14.0,-18.0,-26.0,-21.0,-22.0,-21.0,-28.0,-27.0,3
13.0,-16.0,-25.0,-32.0,-41.0,3.0,72.0,21.0,-23.0,-50.0,-53.0,-60.0,-57.0,-18.0,47.0,46.0,-103.0,-205.0,-212.0,-190.0,-167.0,-180.0,-160.0,-147.0,3
12.0,10.0,8.0,7.0,3.0,1.0,-5.0,11.0,12.0,13.0,13.0,12.0,11.0,10.0,11.0,15.0,16.0,23.0,20.0,21.0,24.0,27.0,27.0,23.0,3
26.0,20.0,21.0,23.0,34.0,59.0,57.0,59.0,25.0,22.0,23.0,22.0,24.0,22.0,17.0,52.0,3.0,-8.0,-17.0,-10.0,-6.0,7.0,19.0,5.0,3
-4.0,-13.0,-14.0,-10.0,-6.0,5.0,25.0,42.0,-5.0,-10.0,-9.0,-8.0,-5.0,3.0,14.0,12.0,-19.0,-13.0,-15.0,-12.0,-11.0,-20.0,-26.0,-21.0,3
15.0,13.0,14.0,14.0,17.0,20.0,17.0,19.0,13.0,15.0,15.0,17.0,17.0,18.0,19.0,19.0,7.0,8.0,8.0,8.0,7.0,7.0,8.0,7.0,3
37.0,49.0,54.0,61.0,48.0,14.0,-34.0,-25.0,1.0,27.0,30.0,27.0,11.0,-11.0,-41.0,-74.0,-23.0,-19.0,-23.0,-15.0,-26.0,-46.0,-54.0,-55.0,3
0.0,-2.0,-5.0,-1.0,3.0,26.0,44.0,39.0,-2.0,0.0,1.0,3.0,6.0,5.0,-11.0,-31.0,4.0,6.0,9.0,9.0,10.0,6.0,3.0,11.0,3
25.0,4.0,-3.0,-12.0,-22.0,-2.0,-3.0,0.0,-29.0,-16.0,-13.0,-26.0,-35.0,-36.0,-38.0,-25.0,-118.0,-215.0,-244.0,-192.0,-155.0,-144.0,-155.0,-157.0,3
43.0,42.0,38.0,33.0,31.0,49.0,65.0,66.0,49.0,43.0,44.0,49.0,58.0,75.0,90.0,91.0,46.0,40.0,39.0,39.0,46.0,65.0,80.0,87.0,3
-14.0,-18.0,-20.0,-23.0,-6.0,9.0,-12.0,0.0,-6.0,-6.0,-3.0,-1.0,3.0,19.0,21.0,17.0,-5.0,-17.0,-24.0,-15.0,-11.0,-4.0,1.0,0.0,3
-7.0,-13.0,-13.0,-8.0,-59.0,82.0,-27.0,-16.0,-31.0,-24.0,-22.0,-27.0,-44.0,-35.0,-42.0,-44.0,-76.0,-103.0,-114.0,-99.0,-78.0,-82.0,-77.0,-79.0,3
41.0,39.0,30.0,23.0,21.0,3.0,19.0,62.0,46.0,36.0,34.0,34.0,43.0,70.0,102.0,100.0,39.0,43.0,41.0,42.0,42.0,36.0,15.0,36.0,3
15.0,16.0,12.0,8.0,8.0,9.0,17.0,16.0,12.0,10.0,9.0,8.0,9.0,11.0,18.0,17.0,8.0,9.0,7.0,7.0,4.0,0.0,0.0,3.0,3
23.0,15.0,8.0,8.0,-6.0,-62.0,-32.0,10.0,-10.0,-21.0,-18.0,-16.0,-1.0,76.0,183.0,167.0,-122.0,-205.0,-218.0,-189.0,-185.0,-227.0,-257.0,-253.0,3
-50.0,-58.0,-59.0,-57.0,-59.0,-42.0,-47.0,-49.0,-83.0,-79.0,-80.0,-87.0,-100.0,-93.0,-101.0,-89.0,-245.0,-396.0,-424.0,-372.0,-311.0,-330.0,-303.0,-312.0,3
-8.0,-36.0,-29.0,-45.0,7.0,-114.0,2.0,-11.0,-58.0,-54.0,-47.0,-52.0,-70.0,-74.0,-82.0,-57.0,-97.0,-173.0,-197.0,-153.0,-140.0,-140.0,-127.0,-137.0,3
-19.0,-15.0,-6.0,0.0,1.0,-11.0,-35.0,-47.0,-17.0,-10.0,-7.0,0.0,1.0,1.0,4.0,-18.0,-16.0,-15.0,-11.0,-8.0,-5.0,-11.0,-13.0,-16.0,3
-12.0,-17.0,-14.0,-12.0,-11.0,-4.0,22.0,7.0,-5.0,-5.0,-6.0,-4.0,-1.0,4.0,11.0,9.0,1.0,-1.0,0.0,-1.0,1.0,6.0,5.0,7.0,3
-3.0,-4.0,-7.0,-11.0,-15.0,-7.0,-11.0,8.0,11.0,0.0,-2.0,-2.0,0.0,9.0,29.0,66.0,1.0,8.0,6.0,2.0,-1.0,-10.0,-24.0,-21.0,3
-13.0,-17.0,-19.0,-20.0,-20.0,-22.0,-23.0,14.0,4.0,-4.0,-3.0,0.0,3.0,9.0,11.0,29.0,1.0,7.0,7.0,6.0,12.0,21.0,23.0,18.0,3
1.0,-1.0,-4.0,-5.0,-8.0,-5.0,-21.0,6.0,5.0,4.0,4.0,2.0,-2.0,0.0,7.0,7.0,17.0,14.0,10.0,5.0,-1.0,-6.0,-16.0,-7.0,3
-49.0,-69.0,-73.0,-71.0,-62.0,-36.0,-9.0,8.0,-54.0,-58.0,-57.0,-60.0,-61.0,-53.0,-40.0,-18.0,-82.0,-143.0,-164.0,-144.0,-125.0,-115.0,-107.0,-93.0,3
-2.0,-2.0,-6.0,-6.0,-5.0,-4.0,-3.0,-3.0,-2.0,-2.0,-4.0,-7.0,-7.0,-12.0,-5.0,12.0,-1.0,2.0,-1.0,-4.0,-6.0,-7.0,1.0,-4.0,3
-42.0,-48.0,-39.0,-34.0,-28.0,-52.0,-51.0,-33.0,-72.0,-83.0,-3.0,-12.0,-27.0,-37.0,-57.0,-83.0,-63.0,-61.0,-66.0,-55.0,-58.0,-56.0,-82.0,-89.0,3
-10.0,-8.0,-8.0,-12.0,-17.0,-17.0,-14.0,-4.0,-7.0,-12.0,-13.0,-15.0,-23.0,-29.0,-29.0,-10.0,-2.0,-8.0,-11.0,-15.0,-15.0,-6.0,9.0,17.0,3
-65.0,-62.0,-60.0,-58.0,-105.0,-130.0,-213.0,-187.0,-119.0,-98.0,-97.0,-110.0,-135.0,-152.0,-168.0,-168.0,-313.0,-563.0,-525.0,-430.0,-345.0,-335.0,-335.0,-376.0,3
-7.0,-5.0,-6.0,-8.0,-10.0,-23.0,-43.0,-31.0,-12.0,-9.0,-11.0,-11.0,-18.0,-21.0,-20.0,-20.0,-10.0,-13.0,-19.0,-16.0,-17.0,-17.0,-19.0,-14.0,3
-17.0,-19.0,-16.0,-12.0,-19.0,-28.0,-51.0,-35.0,-17.0,-19.0,-19.0,-21.0,-25.0,-25.0,-23.0,-14.0,-23.0,-21.0,-17.0,-16.0,-19.0,-28.0,-33.0,-29.0,3
-21.0,-18.0,-18.0,-16.0,-17.0,-23.0,-33.0,-34.0,-23.0,-18.0,-19.0,-23.0,-33.0,-53.0,-65.0,-49.0,-14.0,-11.0,-13.0,-13.0,-12.0,-11.0,-3.0,-1.0,3
14.0,28.0,25.0,34.0,-1.0,133.0,50.0,-8.0,58.0,72.0,75.0,80.0,95.0,90.0,66.0,54.0,235.0,444.0,487.0,388.0,334.0,336.0,299.0,317.0,3
-41.0,-36.0,-28.0,-21.0,-22.0,-36.0,-62.0,-71.0,-35.0,-30.0,-28.0,-29.0,-32.0,-37.0,-44.0,-49.0,-30.0,-28.0,-29.0,-26.0,-28.0,-30.0,-32.0,-27.0,3
-9.0,-1.0,6.0,12.0,18.0,15.0,-35.0,-53.0,-16.0,-6.0,-2.0,-2.0,2.0,-8.0,-31.0,-26.0,-30.0,-24.0,-18.0,-15.0,-14.0,-27.0,-35.0,-42.0,3
-3.0,-2.0,2.0,8.0,8.0,4.0,-26.0,-23.0,-2.0,3.0,5.0,5.0,3.0,0.0,-7.0,-15.0,1.0,7.0,3.0,6.0,2.0,1.0,0.0,1.0,3
37.0,40.0,39.0,35.0,35.0,38.0,46.0,39.0,18.0,25.0,25.0,24.0,16.0,5.0,-13.0,-18.0,-5.0,-43.0,-52.0,-31.0,-30.0,-24.0,-34.0,-27.0,3
-7.0,-3.0,0.0,0.0,-2.0,-8.0,-24.0,-20.0,-14.0,-12.0,-12.0,-12.0,-15.0,-16.0,-12.0,-37.0,-16.0,-7.0,-5.0,-5.0,-11.0,-33.0,-50.0,-37.0,3
-78.0,-76.0,-69.0,-70.0,-73.0,-89.0,-125.0,-111.0,-69.0,-69.0,-69.0,-70.0,-75.0,-92.0,-114.0,-91.0,-45.0,-46.0,-45.0,-45.0,-41.0,-37.0,-31.0,-38.0,3
55.0,51.0,45.0,37.0,39.0,40.0,80.0,81.0,49.0,45.0,41.0,41.0,39.0,44.0,51.0,61.0,32.0,28.0,16.0,19.0,17.0,22.0,17.0,15.0,3
-11.0,-16.0,-13.0,-7.0,-6.0,4.0,-6.0,-5.0,2.0,-2.0,-3.0,-3.0,-2.0,0.0,3.0,10.0,3.0,9.0,5.0,6.0,3.0,2.0,1.0,0.0,3
-2.0,-10.0,-7.0,-2.0,-31.0,25.0,-28.0,-20.0,-9.0,-6.0,-6.0,-9.0,-14.0,-21.0,-36.0,-34.0,-70.0,-128.0,-142.0,-111.0,-91.0,-77.0,-77.0,-77.0,3
-56.0,-70.0,-74.0,-72.0,-75.0,-65.0,-61.0,-52.0,-96.0,-87.0,-88.0,-102.0,-114.0,-109.0,-112.0,-100.0,-237.0,-369.0,-413.0,-360.0,-309.0,-316.0,-305.0,-311.0,3
-50.0,-77.0,-72.0,-78.0,-38.0,-107.0,-33.0,-33.0,-67.0,-71.0,-63.0,-59.0,-62.0,-40.0,-30.0,-11.0,-80.0,-156.0,-180.0,-141.0,-123.0,-95.0,-69.0,-78.0,3
12.0,12.0,14.0,14.0,17.0,14.0,7.0,14.0,8.0,12.0,14.0,13.0,14.0,5.0,-10.0,-9.0,9.0,8.0,10.0,11.0,11.0,12.0,13.0,13.0,3
31.0,26.0,25.0,26.0,23.0,25.0,25.0,47.0,24.0,24.0,16.0,17.0,14.0,7.0,3.0,6.0,4.0,0.0,2.0,7.0,8.0,0.0,-18.0,-28.0,3
5.0,15.0,13.0,7.0,2.0,-3.0,-5.0,-17.0,5.0,0.0,2.0,1.0,1.0,1.0,2.0,46.0,-4.0,-10.0,-15.0,-8.0,-2.0,6.0,-7.0,-43.0,3
9.0,23.0,28.0,33.0,36.0,20.0,-8.0,-33.0,-2.0,15.0,21.0,21.0,20.0,2.0,-33.0,-58.0,13.0,17.0,18.0,20.0,19.0,21.0,24.0,29.0,3
10.0,9.0,9.0,10.0,9.0,5.0,-6.0,-3.0,7.0,12.0,8.0,7.0,4.0,-5.0,-15.0,-10.0,9.0,12.0,13.0,10.0,10.0,9.0,17.0,21.0,3
-38.0,-42.0,-47.0,-48.0,-57.0,-39.0,-56.0,-59.0,-86.0,-84.0,-88.0,-97.0,-102.0,-103.0,-107.0,-93.0,-287.0,-535.0,-545.0,-462.0,-394.0,-408.0,-367.0,-386.0,3
-17.0,-19.0,-15.0,-15.0,-11.0,-17.0,1.0,6.0,-14.0,-11.0,-6.0,-2.0,2.0,7.0,9.0,7.0,-9.0,-1.0,3.0,5.0,6.0,5.0,1.0,1.0,3
-38.0,-29.0,-26.0,-25.0,-29.0,-44.0,-62.0,-69.0,-44.0,-33.0,-30.0,-29.0,-35.0,-51.0,-74.0,-89.0,-37.0,-25.0,-20.0,-18.0,-20.0,-27.0,-32.0,-33.0,3
-2.0,6.0,12.0,11.0,33.0,-1.0,-55.0,-1.0,58.0,65.0,59.0,59.0,66.0,54.0,64.0,56.0,115.0,203.0,279.0,239.0,225.0,238.0,182.0,200.0,3
-19.0,-20.0,-16.0,-12.0,-14.0,-6.0,-12.0,-12.0,-8.0,-8.0,-9.0,-7.0,-6.0,-7.0,-8.0,-7.0,-3.0,6.0,6.0,3.0,-1.0,-2.0,1.0,2.0,3
-29.0,-42.0,-46.0,-46.0,-67.0,-77.0,-78.0,-111.0,-83.0,-83.0,-77.0,-78.0,-80.0,-67.0,-69.0,-66.0,-160.0,-251.0,-250.0,-224.0,-199.0,-207.0,-192.0,-206.0,3
27.0,27.0,22.0,17.0,6.0,-15.0,-23.0,-7.0,20.0,18.0,15.0,10.0,4.0,-3.0,2.0,24.0,12.0,14.0,13.0,11.0,8.0,-1.0,-9.0,-9.0,3
3.0,-4.0,-3.0,-4.0,-3.0,-9.0,13.0,12.0,-4.0,2.0,2.0,7.0,9.0,12.0,7.0,23.0,-36.0,-70.0,-79.0,-58.0,-49.0,-39.0,-53.0,-59.0,3
29.0,29.0,26.0,27.0,27.0,23.0,22.0,26.0,23.0,26.0,25.0,23.0,23.0,21.0,23.0,23.0,14.0,15.0,12.0,10.0,11.0,10.0,10.0,9.0,3
10.0,13.0,22.0,30.0,25.0,-90.0,-95.0,-70.0,-61.0,-29.0,-26.0,-36.0,-62.0,-111.0,-165.0,-184.0,-140.0,-229.0,-237.0,-199.0,-188.0,-212.0,-239.0,-261.0,3
22.0,27.0,26.0,23.0,23.0,23.0,21.0,23.0,28.0,25.0,23.0,25.0,27.0,28.0,31.0,30.0,23.0,31.0,32.0,30.0,25.0,25.0,25.0,27.0,3
-45.0,-40.0,-37.0,-35.0,-40.0,-49.0,-63.0,-56.0,-43.0,-39.0,-38.0,-37.0,-42.0,-54.0,-62.0,-49.0,-35.0,-36.0,-26.0,-26.0,-23.0,-21.0,-11.0,-13.0,3
2.0,3.0,6.0,12.0,16.0,14.0,13.0,10.0,-2.0,6.0,8.0,12.0,14.0,11.0,-2.0,-24.0,-4.0,3.0,5.0,10.0,18.0,21.0,10.0,-15.0,3
-19.0,-16.0,-13.0,-8.0,-26.0,11.0,-26.0,-31.0,-25.0,-26.0,-32.0,-36.0,-35.0,-39.0,-43.0,-35.0,-165.0,-293.0,-259.0,-227.0,-187.0,-205.0,-174.0,-182.0,3
-39.0,-62.0,-67.0,-62.0,18.0,-268.0,-18.0,-32.0,-107.0,-98.0,-101.0,-116.0,-157.0,-192.0,-229.0,-172.0,-165.0,-321.0,-343.0,-303.0,-275.0,-273.0,-225.0,-237.0,3
-14.0,-20.0,-23.0,-26.0,-30.0,-28.0,16.0,29.0,-2.0,-20.0,-20.0,-19.0,-17.0,0.0,34.0,59.0,-25.0,-39.0,-48.0,-41.0,-35.0,-30.0,-34.0,-45.0,3
24.0,9.0,14.0,16.0,10.0,55.0,17.0,14.0,13.0,11.0,10.0,10.0,15.0,26.0,23.0,26.0,-10.0,-31.0,-41.0,-40.0,-51.0,-50.0,-35.0,-30.0,3
1.0,-2.0,-3.0,-4.0,-7.0,0.0,-5.0,1.0,-5.0,-7.0,-8.0,-11.0,-17.0,-20.0,-10.0,24.0,-52.0,-108.0,-129.0,-103.0,-97.0,-96.0,-101.0,-107.0,3
23.0,23.0,22.0,16.0,13.0,15.0,25.0,17.0,15.0,15.0,16.0,15.0,13.0,17.0,20.0,21.0,-70.0,-174.0,-160.0,-121.0,-91.0,-80.0,-86.0,-90.0,3
-33.0,-31.0,-27.0,-23.0,-24.0,-17.0,-27.0,-25.0,-15.0,-19.0,-18.0,-17.0,-8.0,-10.0,-10.0,-9.0,0.0,21.0,31.0,25.0,17.0,16.0,17.0,19.0,3
-21.0,-34.0,-33.0,-28.0,-27.0,-46.0,-32.0,-8.0,-23.0,-26.0,-26.0,-28.0,-36.0,-44.0,-55.0,-45.0,-30.0,-35.0,-37.0,-36.0,-43.0,-57.0,-70.0,-59.0,3
-5.0,-5.0,-5.0,-2.0,1.0,10.0,6.0,1.0,0.0,1.0,3.0,5.0,8.0,9.0,6.0,4.0,7.0,5.0,3.0,4.0,10.0,14.0,14.0,13.0,3
-7.0,-19.0,-21.0,-20.0,-32.0,35.0,22.0,17.0,-18.0,-23.0,-24.0,-24.0,-28.0,-24.0,-23.0,-10.0,-16.0,-45.0,-58.0,-49.0,-40.0,-25.0,-18.0,-23.0,3
22.0,23.0,17.0,8.0,12.0,21.0,22.0,26.0,21.0,23.0,24.0,23.0,28.0,38.0,51.0,47.0,19.0,29.0,25.0,24.0,23.0,15.0,8.0,22.0,3
-27.0,-23.0,-27.0,-24.0,23.0,32.0,108.0,63.0,1.0,-4.0,2.0,17.0,39.0,80.0,124.0,81.0,5.0,-18.0,-9.0,-9.0,3.0,20.0,19.0,8.0,3
-31.0,-39.0,-34.0,-32.0,-28.0,-25.0,-5.0,-10.0,-25.0,-28.0,-27.0,-26.0,-27.0,-22.0,-22.0,-15.0,-35.0,-39.0,-37.0,-33.0,-29.0,-33.0,-32.0,-23.0,3
-127.0,-144.0,-139.0,-131.0,-144.0,-125.0,-122.0,-131.0,-158.0,-152.0,-150.0,-149.0,-143.0,-103.0,-57.0,-95.0,-359.0,-622.0,-600.0,-501.0,-431.0,-447.0,-476.0,-478.0,3
13.0,9.0,9.0,8.0,9.0,10.0,18.0,29.0,14.0,11.0,10.0,9.0,13.0,17.0,23.0,29.0,7.0,9.0,6.0,5.0,5.0,5.0,6.0,6.0,3
-1.0,-1.0,-3.0,-4.0,-2.0,-3.0,-2.0,2.0,-10.0,-6.0,-5.0,-11.0,-18.0,-28.0,-38.0,-45.0,-8.0,-7.0,-6.0,-9.0,-16.0,-24.0,-24.0,-17.0,3
-6.0,-14.0,-14.0,-11.0,-5.0,-8.0,-13.0,-6.0,0.0,-1.0,-6.0,-6.0,-7.0,-7.0,-4.0,1.0,-4.0,1.0,1.0,-1.0,1.0,7.0,3.0,-8.0,3
-30.0,-24.0,-27.0,-24.0,-25.0,-35.0,-68.0,-75.0,-54.0,-44.0,-44.0,-49.0,-64.0,-74.0,-83.0,-63.0,-133.0,-235.0,-254.0,-202.0,-188.0,-205.0,-229.0,-225.0,3
-19.0,-17.0,-10.0,-5.0,-13.0,9.0,-14.0,-18.0,-23.0,-17.0,-21.0,-20.0,-22.0,-24.0,-27.0,-24.0,-116.0,-234.0,-200.0,-170.0,-134.0,-144.0,-123.0,-128.0,3
-22.0,-22.0,-22.0,-19.0,-16.0,-12.0,-4.0,7.0,-18.0,-20.0,-17.0,-11.0,-1.0,18.0,40.0,26.0,-20.0,-17.0,-16.0,-16.0,-20.0,-36.0,-46.0,-37.0,3
6.0,14.0,14.0,19.0,21.0,19.0,12.0,-5.0,3.0,13.0,15.0,15.0,10.0,-3.0,-19.0,-23.0,23.0,38.0,38.0,37.0,36.0,33.0,31.0,32.0,3
-38.0,-45.0,-49.0,-54.0,-58.0,-49.0,-14.0,-7.0,-32.0,-38.0,-39.0,-39.0,-39.0,-23.0,-9.0,-16.0,-22.0,-23.0,-25.0,-25.0,-20.0,-14.0,-19.0,-15.0,3
16.0,19.0,18.0,18.0,12.0,9.0,3.0,33.0,12.0,7.0,7.0,5.0,5.0,5.0,10.0,34.0,0.0,-10.0,-6.0,-5.0,-1.0,-9.0,-22.0,-26.0,3
-34.0,-20.0,-30.0,-10.0,-37.0,-24.0,-25.0,-25.0,-27.0,-23.0,-25.0,-32.0,-33.0,-35.0,-39.0,-28.0,-175.0,-289.0,-235.0,-193.0,-151.0,-169.0,-134.0,-148.0,3
-48.0,-43.0,-36.0,-27.0,-24.0,-40.0,-80.0,-91.0,-62.0,-47.0,-45.0,-46.0,-55.0,-69.0,-99.0,-119.0,-70.0,-69.0,-74.0,-66.0,-65.0,-73.0,-93.0,-100.0,3
0.0,3.0,4.0,6.0,10.0,3.0,4.0,6.0,8.0,9.0,8.0,9.0,14.0,11.0,13.0,10.0,9.0,23.0,25.0,21.0,17.0,16.0,17.0,15.0,3
-4.0,3.0,5.0,10.0,8.0,1.0,-11.0,-32.0,-16.0,-11.0,-9.0,-5.0,-8.0,-9.0,-6.0,-15.0,-39.0,-60.0,-71.0,-55.0,-52.0,-46.0,-60.0,-68.0,3
23.0,19.0,18.0,16.0,14.0,6.0,-1.0,0.0,16.0,14.0,13.0,10.0,6.0,6.0,12.0,14.0,-18.0,-27.0,-29.0,-18.0,-9.0,-10.0,-12.0,-3.0,3
70.0,74.0,76.0,94.0,73.0,116.0,66.0,58.0,80.0,105.0,107.0,100.0,99.0,83.0,66.0,13.0,95.0,194.0,302.0,244.0,237.0,225.0,214.0,221.0,3
-96.0,-117.0,-125.0,-135.0,-120.0,-182.0,-74.0,-92.0,-124.0,-132.0,-144.0,-167.0,-192.0,-209.0,-219.0,-150.0,-253.0,-396.0,-372.0,-338.0,-292.0,-267.0,-192.0,-208.0,3
-78.0,-74.0,-74.0,-74.0,-74.0,-62.0,-92.0,-116.0,-60.0,-77.0,-77.0,-74.0,-61.0,-19.0,45.0,50.0,-72.0,-109.0,-123.0,-114.0,-102.0,-82.0,-39.0,-42.0,3
-70.0,-75.0,-77.0,-81.0,-100.0,-82.0,-83.0,-105.0,-105.0,-103.0,-102.0,-105.0,-111.0,-99.0,-101.0,-80.0,-289.0,-555.0,-545.0,-448.0,-388.0,-392.0,-405.0,-412.0,3
0.0,-6.0,-9.0,-12.0,-22.0,-30.0,-14.0,9.0,3.0,-4.0,-2.0,0.0,8.0,31.0,51.0,44.0,12.0,6.0,5.0,1.0,1.0,18.0,35.0,46.0,3
-12.0,-20.0,-22.0,-28.0,-24.0,-11.0,-8.0,-14.0,-16.0,-22.0,-23.0,-25.0,-23.0,-2.0,33.0,6.0,-20.0,-39.0,-50.0,-42.0,-37.0,-37.0,-39.0,-25.0,3
-25.0,-28.0,-27.0,-30.0,-29.0,-22.0,-27.0,-22.0,-18.0,-21.0,-24.0,-23.0,-27.0,-27.0,-23.0,-21.0,-14.0,-10.0,-16.0,-19.0,-22.0,-22.0,-18.0,-11.0,3
37.0,34.0,26.0,20.0,24.0,29.0,47.0,68.0,26.0,22.0,21.0,21.0,23.0,31.0,41.0,28.0,8.0,16.0,17.0,16.0,5.0,-21.0,-39.0,-12.0,3
4.0,19.0,20.0,21.0,20.0,-5.0,-33.0,-54.0,-5.0,7.0,12.0,16.0,11.0,6.0,-14.0,-26.0,6.0,7.0,10.0,19.0,9.0,5.0,-3.0,-1.0,3
13.0,5.0,2.0,-1.0,-7.0,-9.0,5.0,18.0,22.0,10.0,10.0,10.0,18.0,33.0,49.0,62.0,19.0,17.0,11.0,10.0,16.0,32.0,54.0,43.0,3
-42.0,-55.0,-60.0,-62.0,-16.0,-207.0,-31.0,-48.0,-86.0,-82.0,-89.0,-101.0,-98.0,-106.0,-91.0,-68.0,-140.0,-197.0,-160.0,-146.0,-131.0,-175.0,-171.0,-161.0,3
17.0,21.0,20.0,21.0,22.0,27.0,19.0,7.0,6.0,11.0,12.0,12.0,9.0,-2.0,-22.0,-43.0,3.0,10.0,14.0,13.0,7.0,-3.0,-18.0,-24.0,3
-24.0,-33.0,-28.0,-25.0,-28.0,-38.0,-34.0,-28.0,-22.0,-20.0,-20.0,-20.0,-26.0,-35.0,-44.0,-40.0,-17.0,-16.0,-16.0,-18.0,-20.0,-14.0,-5.0,-1.0,3
-6.0,0.0,3.0,6.0,0.0,-9.0,-29.0,-28.0,-9.0,-2.0,2.0,4.0,6.0,10.0,7.0,-27.0,-9.0,-4.0,10.0,10.0,9.0,-3.0,-34.0,-36.0,3
3.0,7.0,8.0,10.0,6.0,-7.0,-25.0,-10.0,-2.0,4.0,5.0,8.0,6.0,8.0,15.0,14.0,-12.0,-4.0,0.0,5.0,8.0,6.0,-1.0,-20.0,3
-13.0,-30.0,-33.0,-23.0,-33.0,-33.0,-53.0,41.0,11.0,9.0,6.0,-6.0,1.0,21.0,50.0,56.0,37.0,68.0,143.0,78.0,70.0,54.0,60.0,87.0,3
19.0,17.0,16.0,21.0,-2.0,33.0,31.0,6.0,1.0,4.0,2.0,-1.0,-7.0,-18.0,-28.0,-10.0,-51.0,-120.0,-137.0,-108.0,-95.0,-90.0,-89.0,-97.0,3
58.0,55.0,53.0,50.0,40.0,27.0,27.0,63.0,41.0,42.0,45.0,45.0,41.0,49.0,57.0,55.0,8.0,-47.0,-58.0,-29.0,-31.0,-18.0,-23.0,-19.0,3
-4.0,-21.0,-25.0,-1.0,-35.0,-4.0,-31.0,-32.0,-47.0,-42.0,-39.0,-44.0,-56.0,-56.0,-60.0,-47.0,-112.0,-193.0,-239.0,-202.0,-161.0,-177.0,-161.0,-168.0,3
-1.0,-25.0,-33.0,-43.0,-56.0,-50.0,-29.0,25.0,-4.0,-7.0,-11.0,-20.0,-14.0,-5.0,-13.0,20.0,-111.0,-188.0,-120.0,-119.0,-64.0,-33.0,6.0,-26.0,3
-10.0,-8.0,-6.0,0.0,1.0,-4.0,-11.0,-6.0,-7.0,-5.0,-2.0,6.0,15.0,28.0,40.0,26.0,-10.0,-1.0,0.0,1.0,7.0,7.0,-14.0,-19.0,3
-104.0,-121.0,-127.0,-132.0,-142.0,-122.0,-122.0,-127.0,-161.0,-148.0,-149.0,-168.0,-198.0,-185.0,-182.0,-158.0,-400.0,-739.0,-809.0,-675.0,-621.0,-597.0,-615.0,-615.0,3
-56.0,-56.0,-51.0,-42.0,-40.0,-35.0,-30.0,-39.0,-41.0,-42.0,-43.0,-44.0,-49.0,-59.0,-65.0,-48.0,-29.0,-31.0,-30.0,-31.0,-29.0,-25.0,-21.0,-21.0,3
-15.0,-13.0,-10.0,-8.0,-16.0,-9.0,-20.0,-27.0,-11.0,-12.0,-12.0,-12.0,-13.0,-16.0,-18.0,-17.0,-9.0,-4.0,-3.0,-4.0,-2.0,-5.0,-7.0,-11.0,3
39.0,41.0,37.0,49.0,20.0,18.0,-23.0,21.0,51.0,67.0,61.0,46.0,32.0,-10.0,-41.0,-31.0,92.0,251.0,341.0,283.0,256.0,245.0,219.0,225.0,3
14.0,10.0,12.0,12.0,7.0,23.0,16.0,31.0,18.0,14.0,11.0,9.0,10.0,12.0,19.0,24.0,10.0,13.0,11.0,8.0,0.0,-1.0,5.0,8.0,3
-34.0,-48.0,-53.0,-58.0,-77.0,-67.0,-95.0,-69.0,-66.0,-62.0,-64.0,-71.0,-71.0,-54.0,-34.0,17.0,-268.0,-467.0,-411.0,-360.0,-276.0,-268.0,-239.0,-269.0,3
9.0,23.0,21.0,19.0,10.0,-14.0,-29.0,-30.0,5.0,8.0,6.0,1.0,-2.0,-8.0,-4.0,9.0,-6.0,4.0,5.0,2.0,1.0,-2.0,2.0,1.0,3
-16.0,-20.0,-24.0,-15.0,-16.0,-6.0,26.0,19.0,-12.0,-18.0,-19.0,-16.0,-16.0,-20.0,-32.0,-15.0,-6.0,-7.0,-7.0,-7.0,-5.0,-4.0,3.0,1.0,3
-52.0,-69.0,-74.0,-79.0,-37.0,-116.0,-20.0,-34.0,-84.0,-80.0,-76.0,-76.0,-76.0,-52.0,-43.0,-28.0,-231.0,-388.0,-381.0,-324.0,-274.0,-273.0,-262.0,-276.0,3
-16.0,-7.0,-10.0,-14.0,-14.0,-1.0,-7.0,-17.0,-12.0,-13.0,-14.0,-14.0,-16.0,-14.0,-8.0,-8.0,-5.0,-18.0,-19.0,-19.0,-20.0,-22.0,-15.0,-11.0,3
-27.0,-32.0,-31.0,-25.0,-29.0,-19.0,-30.0,-30.0,-30.0,-31.0,-32.0,-32.0,-31.0,-33.0,-32.0,-29.0,-134.0,-267.0,-239.0,-193.0,-150.0,-148.0,-152.0,-159.0,3
-3.0,3.0,0.0,0.0,5.0,12.0,9.0,0.0,-6.0,-2.0,-3.0,-7.0,-15.0,-33.0,-56.0,-29.0,2.0,3.0,3.0,2.0,0.0,2.0,20.0,17.0,3
4.0,4.0,3.0,3.0,-4.0,-12.0,-29.0,-16.0,7.0,5.0,6.0,12.0,21.0,45.0,72.0,54.0,10.0,15.0,16.0,17.0,22.0,20.0,10.0,9.0,3
-112.0,-128.0,-127.0,-116.0,-94.0,-38.0,32.0,-13.0,-119.0,-115.0,-114.0,-114.0,-119.0,-122.0,-146.0,-111.0,-182.0,-327.0,-343.0,-283.0,-249.0,-231.0,-203.0,-197.0,3
-35.0,-36.0,-36.0,-34.0,-31.0,-26.0,-42.0,-36.0,-28.0,-32.0,-31.0,-32.0,-31.0,-32.0,-35.0,-31.0,-17.0,-14.0,-10.0,-8.0,-3.0,-1.0,-6.0,-11.0,3
-46.0,-56.0,-50.0,-45.0,-45.0,-28.0,-2.0,-22.0,-30.0,-36.0,-35.0,-30.0,-24.0,-15.0,-6.0,-7.0,-10.0,0.0,-1.0,-4.0,-4.0,1.0,7.0,13.0,3
39.0,35.0,35.0,36.0,25.0,45.0,16.0,9.0,23.0,29.0,29.0,29.0,21.0,14.0,-8.0,-12.0,7.0,-10.0,-16.0,-12.0,-12.0,-15.0,-20.0,-12.0,3
4.0,8.0,-2.0,-8.0,-9.0,7.0,32.0,28.0,27.0,1.0,-4.0,-7.0,3.0,38.0,90.0,148.0,5.0,-13.0,-28.0,-22.0,-10.0,12.0,25.0,12.0,3
34.0,27.0,26.0,33.0,10.0,0.0,-34.0,-37.0,-23.0,12.0,15.0,7.0,-1.0,-37.0,-114.0,-189.0,-120.0,-109.0,1.0,-34.0,8.0,-44.0,-60.0,-62.0,3
-10.0,-5.0,-6.0,0.0,2.0,-8.0,-16.0,-56.0,-61.0,-44.0,-39.0,-47.0,-61.0,-78.0,-103.0,-131.0,-120.0,-186.0,-201.0,-169.0,-156.0,-176.0,-182.0,-172.0,3
-2.0,-10.0,-8.0,-8.0,-5.0,-21.0,3.0,13.0,-7.0,-1.0,0.0,8.0,17.0,33.0,37.0,19.0,-40.0,-70.0,-77.0,-52.0,-43.0,-41.0,-80.0,-79.0,3
-18.0,-35.0,-33.0,-29.0,-44.0,-47.0,-91.0,-110.0,-99.0,-83.0,-78.0,-88.0,-114.0,-154.0,-216.0,-227.0,-178.0,-263.0,-258.0,-229.0,-209.0,-231.0,-219.0,-239.0,3
-11.0,-12.0,-11.0,-9.0,-6.0,7.0,19.0,21.0,-6.0,-9.0,-11.0,-10.0,-8.0,-7.0,-11.0,-3.0,-10.0,-12.0,-11.0,-12.0,-11.0,-13.0,-16.0,-11.0,3
23.0,-2.0,-1.0,-11.0,32.0,-66.0,22.0,24.0,-9.0,-2.0,4.0,1.0,-19.0,-9.0,-4.0,0.0,-22.0,-57.0,-64.0,-60.0,-45.0,-37.0,-52.0,-51.0,3
-23.0,-19.0,-16.0,-15.0,-14.0,-1.0,5.0,-20.0,-16.0,-17.0,-14.0,-9.0,-3.0,4.0,2.0,2.0,-25.0,-9.0,-10.0,-11.0,-15.0,-28.0,-47.0,-49.0,3
10.0,3.0,0.0,-2.0,2.0,-2.0,-3.0,11.0,15.0,11.0,13.0,15.0,22.0,25.0,27.0,38.0,17.0,16.0,13.0,14.0,21.0,34.0,51.0,44.0,3
31.0,19.0,14.0,13.0,13.0,26.0,47.0,63.0,27.0,22.0,21.0,19.0,22.0,27.0,28.0,47.0,17.0,20.0,17.0,13.0,12.0,9.0,12.0,17.0,3
-20.0,-18.0,-17.0,-15.0,-12.0,-12.0,-15.0,-18.0,-17.0,-15.0,-14.0,-13.0,-14.0,-14.0,-16.0,-16.0,-13.0,-10.0,-14.0,-11.0,-10.0,-11.0,-12.0,-11.0,3
-16.0,-21.0,-20.0,-22.0,-27.0,-30.0,-16.0,8.0,-9.0,-12.0,-13.0,-12.0,-14.0,-16.0,-16.0,-10.0,-3.0,-7.0,-7.0,-13.0,-14.0,-14.0,0.0,15.0,3
9.0,4.0,4.0,1.0,-4.0,-23.0,-33.0,-2.0,4.0,0.0,-5.0,-10.0,-19.0,-25.0,-24.0,-11.0,-15.0,-13.0,-21.0,-19.0,-20.0,-26.0,-25.0,-21.0,3
-26.0,-14.0,-11.0,-8.0,-13.0,-22.0,-32.0,-87.0,-38.0,-27.0,-25.0,-24.0,-32.0,-42.0,-66.0,-96.0,-17.0,-16.0,-12.0,1.0,3.0,-6.0,-11.0,-21.0,3
19.0,21.0,17.0,17.0,15.0,7.0,0.0,12.0,13.0,13.0,12.0,6.0,6.0,-2.0,-8.0,-8.0,17.0,14.0,14.0,14.0,12.0,3.0,-3.0,9.0,3
-3.0,-6.0,-7.0,-6.0,-19.0,25.0,-4.0,-22.0,-13.0,-10.0,-9.0,-8.0,-10.0,-6.0,-2.0,-13.0,-24.0,-58.0,-67.0,-55.0,-44.0,-24.0,-23.0,-40.0,3
-5.0,-29.0,-35.0,-42.0,-56.0,-33.0,-13.0,-24.0,-31.0,-22.0,-28.0,-42.0,-48.0,-66.0,-91.0,-80.0,-108.0,-146.0,-54.0,-88.0,-31.0,-45.0,-18.0,-22.0,3
1.0,-7.0,-10.0,-14.0,-15.0,-7.0,21.0,48.0,7.0,-4.0,-9.0,-13.0,-13.0,-12.0,-2.0,17.0,13.0,8.0,7.0,2.0,2.0,7.0,21.0,27.0,3
-81.0,-116.0,-114.0,-98.0,-78.0,-8.0,61.0,38.0,-80.0,-91.0,-83.0,-73.0,-54.0,13.0,80.0,51.0,-103.0,-226.0,-252.0,-216.0,-183.0,-164.0,-155.0,-158.0,3
-36.0,-39.0,-32.0,-25.0,-10.0,12.0,8.0,-11.0,-25.0,-29.0,-27.0,-24.0,-27.0,-39.0,-54.0,-20.0,-13.0,-15.0,-16.0,-14.0,-5.0,14.0,44.0,25.0,3
-13.0,-12.0,-9.0,-8.0,-6.0,-12.0,-9.0,-4.0,-14.0,-7.0,-4.0,0.0,5.0,6.0,-2.0,-18.0,-17.0,-9.0,-7.0,-4.0,-2.0,-3.0,-14.0,-24.0,3
8.0,20.0,17.0,17.0,14.0,9.0,-6.0,-32.0,-2.0,5.0,6.0,3.0,-1.0,-13.0,-31.0,-51.0,-2.0,2.0,6.0,5.0,2.0,-5.0,-10.0,-14.0,3
-7.0,6.0,9.0,14.0,17.0,22.0,-8.0,-17.0,-6.0,2.0,5.0,6.0,0.0,-16.0,-38.0,-28.0,-2.0,-1.0,-3.0,0.0,-3.0,-9.0,-8.0,-6.0,3
44.0,32.0,21.0,12.0,-13.0,76.0,11.0,42.0,28.0,18.0,14.0,6.0,-2.0,7.0,25.0,46.0,12.0,-20.0,-36.0,-34.0,-38.0,-43.0,-47.0,-27.0,3
20.0,18.0,19.0,11.0,3.0,-27.0,-25.0,-1.0,12.0,11.0,8.0,5.0,-6.0,-13.0,-12.0,-11.0,12.0,22.0,14.0,13.0,10.0,10.0,13.0,17.0,3
2.0,11.0,9.0,12.0,0.0,-32.0,-67.0,-51.0,-2.0,-1.0,-3.0,-3.0,-12.0,-24.0,-30.0,-19.0,3.0,4.0,4.0,1.0,0.0,1.0,6.0,9.0,3
-52.0,-72.0,-77.0,-52.0,-86.0,-50.0,-74.0,-73.0,-93.0,-83.0,-82.0,-88.0,-110.0,-108.0,-111.0,-96.0,-140.0,-254.0,-304.0,-260.0,-216.0,-227.0,-213.0,-217.0,3
-52.0,-64.0,-69.0,-73.0,-20.0,-203.0,0.0,-24.0,-85.0,-86.0,-92.0,-102.0,-89.0,-77.0,-44.0,-31.0,-139.0,-201.0,-167.0,-150.0,-130.0,-161.0,-150.0,-150.0,3
-64.0,-88.0,-94.0,-93.0,-140.0,-17.0,-120.0,-119.0,-126.0,-110.0,-107.0,-128.0,-154.0,-147.0,-156.0,-142.0,-338.0,-527.0,-585.0,-512.0,-440.0,-449.0,-444.0,-460.0,3
-70.0,-90.0,-96.0,-108.0,0.0,-285.0,19.0,19.0,-113.0,-120.0,-123.0,-128.0,-120.0,-102.0,-61.0,-26.0,-197.0,-360.0,-351.0,-310.0,-270.0,-281.0,-273.0,-276.0,3
-14.0,-23.0,-27.0,-29.0,-25.0,-18.0,-22.0,-8.0,2.0,-14.0,-18.0,-18.0,-11.0,1.0,19.0,35.0,4.0,-15.0,-22.0,-28.0,-19.0,15.0,58.0,71.0,3
13.0,11.0,10.0,10.0,20.0,38.0,47.0,32.0,17.0,19.0,20.0,22.0,24.0,25.0,21.0,23.0,21.0,19.0,21.0,20.0,22.0,25.0,27.0,28.0,3
14.0,-13.0,-27.0,-35.0,-44.0,-35.0,19.0,95.0,2.0,-26.0,-34.0,-47.0,-52.0,-39.0,-7.0,66.0,-45.0,-110.0,-134.0,-127.0,-119.0,-101.0,-52.0,-37.0,3
-41.0,-46.0,-42.0,-42.0,-36.0,-26.0,-18.0,-10.0,-37.0,-35.0,-35.0,-32.0,-32.0,-33.0,-37.0,-36.0,-35.0,-31.0,-33.0,-30.0,-21.0,-21.0,-30.0,-28.0,3
-26.0,-35.0,-38.0,-39.0,-37.0,2.0,-5.0,-39.0,-34.0,-33.0,-31.0,-27.0,-25.0,-20.0,-25.0,-12.0,-71.0,-135.0,-153.0,-116.0,-99.0,-87.0,-93.0,-105.0,3
-42.0,-40.0,-43.0,-50.0,-53.0,-43.0,-35.0,-72.0,-58.0,-63.0,-64.0,-69.0,-78.0,-76.0,-75.0,-40.0,-161.0,-320.0,-340.0,-272.0,-259.0,-259.0,-260.0,-259.0,3
-1.0,6.0,7.0,11.0,15.0,16.0,9.0,-9.0,-2.0,7.0,10.0,9.0,6.0,-6.0,-22.0,-27.0,17.0,33.0,33.0,33.0,32.0,31.0,29.0,29.0,3
-29.0,-45.0,-47.0,-47.0,-73.0,18.0,-5.0,-50.0,-57.0,-56.0,-55.0,-65.0,-86.0,-87.0,-90.0,-60.0,-81.0,-175.0,-201.0,-180.0,-169.0,-171.0,-161.0,-146.0,3
-47.0,-49.0,-43.0,-35.0,-51.0,-10.0,-49.0,-49.0,-52.0,-52.0,-56.0,-60.0,-60.0,-63.0,-69.0,-58.0,-172.0,-295.0,-272.0,-248.0,-216.0,-237.0,-200.0,-205.0,3
-2.0,-11.0,-5.0,2.0,-3.0,-17.0,-90.0,-55.0,6.0,7.0,1.0,8.0,25.0,43.0,67.0,58.0,-18.0,-24.0,-22.0,-9.0,1.0,3.0,-24.0,-45.0,3
