0,1,2,3,4,5,6,7,8,9,10,11,12,13,14,15,16,17,18,19,20,21,22,23,24
0.0,0.0,-1.0,-1.0,2.0,7.0,2.0,1.0,2.0,0.0,0.0,0.0,1.0,3.0,10.0,7.0,2.0,8.0,4.0,2.0,1.0,-5.0,-5.0,5.0,3
37.0,9.0,3.0,0.0,49.0,45.0,-118.0,34.0,-10.0,32.0,12.0,33.0,68.0,24.0,-227.0,-391.0,-65.0,-20.0,29.0,-37.0,9.0,39.0,-28.0,-101.0,3
-18.0,-16.0,-16.0,-10.0,-4.0,25.0,-37.0,-27.0,5.0,-14.0,-12.0,-8.0,11.0,49.0,30.0,10.0,2.0,10.0,6.0,10.0,27.0,39.0,28.0,8.0,3
-5.0,-57.0,-71.0,-61.0,9.0,27.0,-19.0,15.0,259.0,68.0,21.0,25.0,23.0,52.0,56.0,-187.0,-17.0,-39.0,-21.0,-29.0,-5.0,7.0,-33.0,-68.0,3
-10.0,-7.0,-5.0,1.0,13.0,25.0,29.0,17.0,94.0,5.0,10.0,10.0,26.0,66.0,99.0,58.0,11.0,18.0,15.0,18.0,21.0,23.0,17.0,17.0,3
17.0,18.0,17.0,19.0,19.0,17.0,29.0,28.0,24.0,19.0,21.0,19.0,21.0,15.0,10.0,17.0,16.0,23.0,17.0,19.0,23.0,27.0,20.0,11.0,3
-27.0,-23.0,-21.0,-11.0,2.0,29.0,-16.0,-18.0,11.0,-17.0,-8.0,0.0,21.0,37.0,8.0,-6.0,1.0,8.0,8.0,13.0,30.0,44.0,53.0,-1.0,3
193.0,176.0,149.0,121.0,48.0,-53.0,140.0,119.0,-360.0,145.0,93.0,68.0,-14.0,-170.0,-315.0,-168.0,29.0,-37.0,5.0,11.0,-19.0,-57.0,-88.0,-46.0,3
-15.0,-11.0,-9.0,-1.0,0.0,8.0,-4.0,-10.0,-13.0,-14.0,-6.0,-4.0,3.0,12.0,-1.0,-3.0,2.0,21.0,19.0,12.0,13.0,11.0,26.0,47.0,3
145.0,108.0,75.0,55.0,12.0,-78.0,-11.0,19.0,-507.0,98.0,45.0,27.0,-35.0,-163.0,-333.0,-291.0,-76.0,-114.0,-95.0,-57.0,-49.0,-51.0,-127.0,-139.0,3
16.0,15.0,14.0,12.0,-5.0,-51.0,-10.0,5.0,-55.0,4.0,2.0,0.0,-15.0,-31.0,-89.0,-19.0,-12.0,-17.0,-16.0,-15.0,-13.0,-11.0,0.0,-9.0,3
-25.0,-15.0,-12.0,-5.0,-11.0,-140.0,-86.0,-33.0,41.0,-15.0,-9.0,-8.0,14.0,5.0,19.0,-3.0,0.0,32.0,12.0,-3.0,-11.0,-34.0,-105.0,-20.0,3
-27.0,-25.0,-24.0,-27.0,-28.0,-18.0,-30.0,-31.0,-27.0,-26.0,-22.0,-23.0,-21.0,-28.0,-22.0,-35.0,-23.0,-18.0,-20.0,-19.0,-21.0,-19.0,-22.0,-27.0,3
5.0,-4.0,-11.0,-31.0,-66.0,-182.0,-38.0,-26.0,-56.0,-15.0,-30.0,-43.0,-78.0,-160.0,-97.0,-69.0,-32.0,-62.0,-53.0,-62.0,-59.0,-61.0,-89.0,-70.0,3
12.0,11.0,12.0,14.0,18.0,21.0,21.0,20.0,23.0,15.0,16.0,19.0,19.0,20.0,21.0,21.0,14.0,21.0,23.0,19.0,21.0,25.0,27.0,23.0,3
-5.0,-5.0,-7.0,-3.0,1.0,15.0,15.0,14.0,0.0,-1.0,1.0,0.0,6.0,17.0,-14.0,4.0,14.0,8.0,9.0,11.0,17.0,27.0,46.0,12.0,3
39.0,16.0,1.0,12.0,23.0,20.0,80.0,80.0,21.0,16.0,10.0,7.0,5.0,-22.0,18.0,24.0,27.0,1.0,3.0,14.0,-9.0,-28.0,-33.0,-2.0,3
165.0,151.0,132.0,114.0,89.0,230.0,52.0,19.0,-376.0,120.0,88.0,73.0,68.0,89.0,-152.0,-45.0,37.0,-45.0,-5.0,21.0,8.0,-17.0,-29.0,12.0,3
-3.0,-6.0,-8.0,-9.0,-10.0,-12.0,-9.0,-11.0,-6.0,-3.0,-6.0,-7.0,-9.0,-7.0,-5.0,1.0,1.0,8.0,1.0,-2.0,-5.0,1.0,13.0,4.0,3
2.0,3.0,3.0,5.0,7.0,20.0,16.0,17.0,-23.0,2.0,7.0,6.0,8.0,-7.0,-15.0,-18.0,3.0,12.0,9.0,11.0,10.0,8.0,-6.0,5.0,3
-9.0,-10.0,-10.0,-14.0,-10.0,-8.0,-11.0,-12.0,-11.0,-10.0,-8.0,-10.0,-8.0,-9.0,-3.0,-5.0,-5.0,-4.0,-2.0,-5.0,-7.0,-3.0,-1.0,-4.0,3
4.0,1.0,0.0,4.0,17.0,18.0,22.0,31.0,37.0,7.0,9.0,11.0,29.0,27.0,43.0,34.0,18.0,29.0,29.0,23.0,29.0,34.0,25.0,20.0,3
12.0,19.0,23.0,20.0,23.0,49.0,27.0,40.0,41.0,8.0,8.0,2.0,-14.0,-29.0,-4.0,-7.0,4.0,29.0,8.0,-3.0,-47.0,-91.0,-124.0,-15.0,3
-12.0,-12.0,-14.0,-8.0,1.0,26.0,-33.0,-74.0,-93.0,-22.0,-25.0,-23.0,-2.0,35.0,-69.0,-27.0,-43.0,-122.0,-100.0,-49.0,-33.0,-37.0,-64.0,-86.0,3
76.0,54.0,29.0,-4.0,-77.0,-61.0,-44.0,-12.0,-680.0,-14.0,-61.0,-76.0,-155.0,-296.0,-559.0,-280.0,-163.0,-283.0,-201.0,-184.0,-158.0,-157.0,-136.0,-156.0,3
73.0,55.0,31.0,29.0,10.0,41.0,-10.0,1.0,-423.0,55.0,17.0,2.0,3.0,-106.0,-332.0,-225.0,-13.0,-84.0,-32.0,-10.0,57.0,107.0,106.0,-53.0,3
272.0,179.0,146.0,76.0,-32.0,-54.0,-1.0,-159.0,-1100.0,81.0,23.0,-19.0,-159.0,-517.0,-961.0,-710.0,-219.0,-444.0,-357.0,-237.0,-175.0,-171.0,-136.0,-240.0,3
-37.0,-28.0,-25.0,-30.0,-46.0,15.0,-108.0,-87.0,-185.0,-38.0,-35.0,-35.0,4.0,109.0,-8.0,19.0,2.0,-26.0,-16.0,-16.0,21.0,82.0,309.0,70.0,3
-29.0,-39.0,-39.0,-34.0,-15.0,29.0,15.0,38.0,27.0,-25.0,-20.0,-15.0,10.0,16.0,13.0,8.0,12.0,27.0,31.0,15.0,22.0,31.0,31.0,26.0,3
-35.0,-37.0,-39.0,-26.0,-27.0,-4.0,-30.0,-30.0,-1.0,-27.0,-31.0,-28.0,-9.0,-2.0,-24.0,-10.0,-24.0,-21.0,-25.0,-26.0,-12.0,-29.0,-19.0,-21.0,3
27.0,25.0,25.0,29.0,41.0,58.0,44.0,44.0,63.0,29.0,33.0,34.0,44.0,62.0,62.0,63.0,30.0,39.0,34.0,33.0,35.0,31.0,21.0,24.0,3
-3.0,-5.0,-5.0,-2.0,3.0,2.0,-2.0,2.0,7.0,-2.0,-3.0,2.0,2.0,5.0,0.0,0.0,-2.0,0.0,-1.0,0.0,0.0,1.0,4.0,-4.0,3
42.0,35.0,32.0,14.0,4.0,9.0,27.0,31.0,55.0,29.0,6.0,-5.0,-8.0,0.0,12.0,27.0,35.0,-47.0,-44.0,-39.0,-34.0,-37.0,-47.0,-91.0,3
-7.0,-8.0,-6.0,3.0,14.0,40.0,28.0,33.0,8.0,-3.0,5.0,10.0,19.0,45.0,23.0,15.0,-10.0,14.0,15.0,10.0,10.0,14.0,4.0,16.0,3
-28.0,-25.0,-25.0,-22.0,-19.0,-17.0,-27.0,-31.0,-38.0,-25.0,-23.0,-24.0,-25.0,-37.0,-52.0,-40.0,-32.0,-33.0,-30.0,-26.0,-27.0,-33.0,-38.0,-41.0,3
5.0,10.0,16.0,0.0,-18.0,-37.0,-1.0,27.0,64.0,2.0,-1.0,-2.0,-13.0,-11.0,16.0,13.0,13.0,35.0,17.0,9.0,-9.0,-16.0,-16.0,5.0,3
-18.0,-18.0,-16.0,-13.0,-13.0,37.0,18.0,5.0,11.0,-14.0,-10.0,-10.0,7.0,29.0,19.0,8.0,-1.0,7.0,5.0,-1.0,5.0,7.0,7.0,6.0,3
19.0,19.0,21.0,6.0,4.0,-9.0,0.0,-49.0,-259.0,46.0,33.0,20.0,-1.0,-29.0,-54.0,-53.0,14.0,7.0,18.0,23.0,29.0,28.0,31.0,31.0,3
36.0,23.0,18.0,10.0,-14.0,-31.0,-1.0,39.0,-961.0,-28.0,-22.0,-20.0,-56.0,-262.0,-780.0,-666.0,-113.0,-172.0,-128.0,-109.0,-71.0,-67.0,-55.0,-122.0,3
41.0,37.0,31.0,23.0,10.0,-20.0,51.0,58.0,10.0,24.0,14.0,9.0,-31.0,-63.0,11.0,31.0,-9.0,-13.0,-13.0,-22.0,-59.0,-114.0,-135.0,-28.0,3
0.0,4.0,5.0,9.0,10.0,25.0,4.0,6.0,21.0,3.0,5.0,6.0,10.0,16.0,14.0,8.0,9.0,14.0,15.0,7.0,8.0,12.0,15.0,9.0,3
8.0,7.0,3.0,1.0,-12.0,-12.0,8.0,14.0,13.0,8.0,3.0,2.0,-4.0,3.0,11.0,12.0,2.0,3.0,0.0,6.0,7.0,7.0,4.0,4.0,3
-27.0,-23.0,-15.0,-20.0,-26.0,-38.0,-12.0,-15.0,-5.0,-23.0,-16.0,-11.0,-11.0,-8.0,2.0,10.0,-3.0,22.0,28.0,3.0,-6.0,-14.0,-8.0,39.0,3
13.0,14.0,14.0,6.0,-23.0,1.0,12.0,68.0,42.0,20.0,10.0,3.0,-34.0,-27.0,-9.0,-9.0,-17.0,-7.0,10.0,-17.0,-28.0,-27.0,-68.0,-41.0,3
-20.0,-13.0,-8.0,-1.0,3.0,0.0,0.0,10.0,-17.0,-14.0,-3.0,3.0,1.0,-7.0,-7.0,-1.0,-6.0,25.0,24.0,18.0,12.0,11.0,17.0,52.0,3
-20.0,-18.0,-19.0,-21.0,-27.0,-53.0,-16.0,-11.0,60.0,-14.0,-16.0,-17.0,-22.0,7.0,59.0,24.0,-17.0,-12.0,-17.0,-18.0,-28.0,-33.0,-41.0,-15.0,3
-11.0,-14.0,-19.0,-21.0,-7.0,-4.0,0.0,12.0,27.0,-10.0,-13.0,-13.0,-5.0,-3.0,11.0,4.0,6.0,12.0,-7.0,-6.0,-9.0,-13.0,-6.0,-13.0,3
65.0,72.0,61.0,66.0,60.0,93.0,236.0,138.0,-56.0,84.0,86.0,79.0,74.0,127.0,112.0,78.0,86.0,99.0,81.0,82.0,93.0,87.0,64.0,64.0,3
66.0,52.0,43.0,41.0,12.0,-33.0,-12.0,-57.0,-362.0,41.0,30.0,19.0,-33.0,-46.0,-355.0,-103.0,-69.0,-227.0,-106.0,-88.0,-43.0,-44.0,18.0,-68.0,3
65.0,26.0,2.0,-22.0,-22.0,-16.0,91.0,190.0,-104.0,66.0,10.0,9.0,-80.0,-117.0,-102.0,-234.0,-57.0,4.0,6.0,-43.0,-52.0,-23.0,-65.0,-134.0,3
96.0,57.0,38.0,20.0,-12.0,13.0,80.0,70.0,-163.0,86.0,39.0,32.0,5.0,-50.0,-111.0,-99.0,-25.0,-92.0,-23.0,-22.0,16.0,60.0,46.0,-43.0,3
-23.0,-24.0,-23.0,-26.0,-30.0,-53.0,-30.0,-17.0,-2.0,-22.0,-22.0,-22.0,-26.0,-24.0,-30.0,-16.0,-19.0,-15.0,-14.0,-18.0,-18.0,-16.0,-11.0,-23.0,3
18.0,12.0,4.0,-1.0,-9.0,-10.0,-10.0,-2.0,-312.0,0.0,-8.0,-11.0,-18.0,-91.0,-261.0,-219.0,-36.0,-63.0,-32.0,-41.0,-26.0,-22.0,-23.0,-34.0,3
34.0,43.0,47.0,46.0,22.0,-116.0,46.0,58.0,80.0,38.0,38.0,36.0,14.0,-57.0,27.0,33.0,25.0,19.0,23.0,20.0,7.0,-17.0,-13.0,17.0,3
-2.0,-15.0,-25.0,-11.0,1.0,13.0,26.0,17.0,-22.0,5.0,-1.0,2.0,4.0,14.0,5.0,26.0,26.0,16.0,11.0,11.0,20.0,31.0,67.0,43.0,3
-50.0,-44.0,-37.0,-33.0,-36.0,5.0,-1.0,-6.0,86.0,-31.0,-26.0,-21.0,-15.0,40.0,32.0,17.0,-27.0,-37.0,-26.0,-22.0,-18.0,-11.0,1.0,-24.0,3
9.0,9.0,10.0,13.0,20.0,50.0,27.0,30.0,-39.0,4.0,5.0,8.0,7.0,4.0,-3.0,3.0,4.0,-3.0,5.0,-4.0,-10.0,-47.0,-40.0,1.0,3
-5.0,-8.0,-1.0,26.0,104.0,103.0,14.0,77.0,280.0,29.0,22.0,36.0,61.0,72.0,138.0,-48.0,-77.0,-60.0,-29.0,-31.0,-39.0,-50.0,-111.0,-71.0,3
42.0,15.0,-8.0,-19.0,-49.0,-13.0,-28.0,-107.0,-432.0,-20.0,-43.0,-53.0,-66.0,-133.0,-321.0,-188.0,-168.0,-209.0,-214.0,-116.0,-40.0,-5.0,18.0,-162.0,3
-32.0,-30.0,-29.0,-30.0,-41.0,-59.0,-55.0,-46.0,-103.0,-37.0,-35.0,-35.0,-31.0,-59.0,-99.0,-64.0,-42.0,-54.0,-41.0,-39.0,-36.0,-43.0,-43.0,-47.0,3
-8.0,-7.0,-9.0,-11.0,-13.0,-39.0,-9.0,-1.0,32.0,0.0,-2.0,-2.0,-1.0,-6.0,15.0,11.0,-2.0,-2.0,0.0,-7.0,-10.0,-10.0,-14.0,-10.0,3
4.0,5.0,5.0,3.0,6.0,13.0,10.0,8.0,-2.0,3.0,5.0,2.0,1.0,-1.0,-4.0,-6.0,2.0,3.0,6.0,3.0,-4.0,-5.0,-14.0,-2.0,3
-6.0,-3.0,-1.0,1.0,7.0,4.0,0.0,8.0,6.0,-4.0,0.0,1.0,7.0,6.0,4.0,14.0,19.0,31.0,33.0,19.0,16.0,11.0,17.0,41.0,3
60.0,62.0,54.0,32.0,-24.0,-138.0,-16.0,17.0,-21.0,49.0,28.0,19.0,-22.0,-35.0,-27.0,17.0,25.0,-2.0,8.0,5.0,-16.0,-33.0,-36.0,23.0,3
19.0,19.0,17.0,15.0,11.0,-9.0,27.0,32.0,74.0,23.0,19.0,16.0,13.0,12.0,32.0,34.0,23.0,29.0,18.0,15.0,13.0,-3.0,-8.0,19.0,3
-16.0,-10.0,-7.0,2.0,16.0,13.0,-4.0,-2.0,-16.0,-8.0,3.0,7.0,25.0,4.0,-20.0,-9.0,0.0,24.0,29.0,17.0,40.0,52.0,44.0,31.0,3
-30.0,-27.0,-23.0,-6.0,17.0,28.0,-60.0,-57.0,-7.0,-24.0,-18.0,-12.0,6.0,48.0,-27.0,-25.0,-16.0,-23.0,-13.0,-13.0,-15.0,-43.0,-72.0,-26.0,3
116.0,111.0,101.0,81.0,54.0,138.0,65.0,0.0,-441.0,69.0,46.0,32.0,9.0,8.0,-183.0,-69.0,-10.0,-86.0,-80.0,-7.0,-19.0,-30.0,-2.0,-10.0,3
-6.0,-2.0,-2.0,-7.0,-15.0,-44.0,-34.0,-13.0,47.0,-2.0,-5.0,-7.0,-19.0,-57.0,-18.0,-8.0,0.0,-3.0,0.0,-9.0,-22.0,-30.0,-38.0,-19.0,3
-6.0,-6.0,-8.0,-5.0,-9.0,3.0,-6.0,-4.0,-91.0,-6.0,-8.0,-5.0,8.0,7.0,-65.0,-6.0,-12.0,-43.0,-26.0,-10.0,21.0,47.0,77.0,12.0,3
83.0,57.0,45.0,26.0,-38.0,-22.0,-32.0,-39.0,-450.0,28.0,19.0,17.0,-29.0,-120.0,-334.0,-155.0,-132.0,-82.0,-79.0,-44.0,-15.0,26.0,106.0,52.0,3
17.0,12.0,5.0,-5.0,-32.0,-40.0,8.0,4.0,-138.0,6.0,-12.0,-25.0,-73.0,-155.0,-112.0,-40.0,-21.0,-66.0,-40.0,-46.0,-101.0,-194.0,-168.0,-31.0,3
-14.0,-13.0,-14.0,-12.0,-9.0,14.0,-6.0,-10.0,-3.0,-10.0,-8.0,-6.0,2.0,3.0,3.0,0.0,1.0,8.0,4.0,4.0,11.0,13.0,10.0,7.0,3
-9.0,-9.0,-11.0,-5.0,-10.0,-47.0,-2.0,17.0,-4.0,-6.0,-2.0,-2.0,-8.0,-16.0,-3.0,5.0,-4.0,25.0,23.0,16.0,5.0,4.0,17.0,46.0,3
58.0,21.0,2.0,-19.0,-19.0,-11.0,-85.0,41.0,-291.0,32.0,-10.0,-14.0,-9.0,-85.0,-260.0,-227.0,-113.0,-77.0,-60.0,-89.0,-36.0,28.0,35.0,-63.0,3
-8.0,-8.0,-7.0,-8.0,-9.0,-4.0,-6.0,-4.0,55.0,-1.0,-1.0,0.0,1.0,14.0,29.0,36.0,16.0,16.0,11.0,10.0,6.0,-8.0,-20.0,22.0,3
1.0,3.0,7.0,12.0,19.0,31.0,9.0,8.0,23.0,8.0,14.0,16.0,31.0,27.0,29.0,2.0,12.0,19.0,14.0,17.0,23.0,29.0,24.0,8.0,3
58.0,31.0,15.0,3.0,-22.0,-27.0,-37.0,-84.0,-201.0,11.0,-2.0,-7.0,-38.0,-59.0,-103.0,-81.0,-43.0,-74.0,-85.0,-41.0,-35.0,-37.0,-39.0,-75.0,3
33.0,28.0,29.0,21.0,3.0,-10.0,-14.0,-50.0,-94.0,13.0,5.0,0.0,-14.0,-39.0,-94.0,-31.0,-12.0,-89.0,-67.0,-28.0,-18.0,-19.0,-16.0,-43.0,3
154.0,120.0,87.0,47.0,-29.0,6.0,12.0,-32.0,-634.0,90.0,33.0,4.0,-66.0,-144.0,-371.0,-217.0,-15.0,-108.0,-87.0,-34.0,-23.0,-12.0,25.0,-33.0,3
38.0,38.0,29.0,21.0,-8.0,-15.0,12.0,-6.0,-240.0,24.0,7.0,-1.0,-16.0,-54.0,-184.0,-103.0,-26.0,-73.0,-41.0,-25.0,-24.0,-41.0,-42.0,-50.0,3
-189.0,-182.0,-148.0,-82.0,40.0,57.0,101.0,124.0,978.0,-47.0,-18.0,18.0,58.0,70.0,364.0,87.0,51.0,94.0,55.0,40.0,32.0,29.0,38.0,70.0,3
19.0,24.0,29.0,24.0,14.0,12.0,29.0,21.0,25.0,14.0,15.0,11.0,9.0,19.0,24.0,23.0,39.0,20.0,19.0,7.0,1.0,-10.0,-15.0,21.0,3
-15.0,-16.0,-19.0,-19.0,-18.0,-17.0,-17.0,-18.0,-22.0,-14.0,-15.0,-16.0,-13.0,-15.0,-22.0,-16.0,-12.0,-12.0,-12.0,-12.0,-10.0,-11.0,-9.0,-13.0,3
-23.0,-23.0,-25.0,-21.0,-20.0,-22.0,-26.0,-26.0,-18.0,-21.0,-20.0,-21.0,-20.0,-18.0,-17.0,-17.0,-17.0,-15.0,-17.0,-15.0,-15.0,-15.0,-15.0,-15.0,3
70.0,41.0,32.0,10.0,-35.0,96.0,-22.0,7.0,-349.0,27.0,-9.0,-10.0,-32.0,-13.0,-265.0,-141.0,-134.0,-142.0,-134.0,-115.0,-30.0,122.0,302.0,-56.0,3
28.0,24.0,20.0,21.0,23.0,27.0,35.0,31.0,22.0,26.0,25.0,25.0,26.0,35.0,28.0,28.0,17.0,18.0,17.0,17.0,23.0,24.0,21.0,18.0,3
2.0,9.0,6.0,6.0,5.0,18.0,-6.0,-13.0,-174.0,-6.0,-3.0,-2.0,21.0,22.0,12.0,19.0,17.0,-1.0,10.0,15.0,47.0,64.0,63.0,25.0,3
25.0,21.0,20.0,16.0,8.0,-5.0,3.0,14.0,-180.0,7.0,8.0,8.0,-5.0,-22.0,-160.0,-64.0,-20.0,-35.0,-24.0,-18.0,-1.0,-5.0,33.0,-22.0,3
-12.0,-14.0,-16.0,-15.0,-16.0,-18.0,-10.0,-11.0,-13.0,-12.0,-12.0,-11.0,-15.0,-14.0,-10.0,-12.0,-15.0,-14.0,-12.0,-13.0,-17.0,-20.0,-25.0,-15.0,3
-8.0,-8.0,-8.0,-12.0,-12.0,-1.0,3.0,-4.0,2.0,-8.0,-7.0,-7.0,-6.0,0.0,3.0,-4.0,-7.0,5.0,-3.0,-4.0,-7.0,-10.0,-20.0,-8.0,3
170.0,124.0,79.0,46.0,-38.0,-66.0,-69.0,-134.0,-605.0,48.0,-2.0,-8.0,-91.0,-169.0,-500.0,-228.0,-138.0,-250.0,-257.0,-129.0,-130.0,-119.0,-88.0,-213.0,3
-12.0,-11.0,-9.0,-11.0,-14.0,-12.0,-19.0,-17.0,-18.0,-13.0,-13.0,-15.0,-12.0,-2.0,-10.0,-5.0,-7.0,-4.0,-8.0,-9.0,-9.0,-9.0,-3.0,-2.0,3
-419.0,-320.0,-227.0,-96.0,30.0,31.0,57.0,81.0,1874.0,-308.0,-124.0,-54.0,88.0,417.0,1061.0,813.0,-8.0,190.0,53.0,73.0,81.0,104.0,122.0,172.0,3
0.0,1.0,2.0,-2.0,-5.0,-10.0,-12.0,-11.0,-10.0,-3.0,-2.0,-2.0,-10.0,-7.0,-9.0,-16.0,-9.0,-8.0,-6.0,-7.0,-13.0,-14.0,-20.0,-14.0,3
2.0,-11.0,-21.0,-27.0,-15.0,-15.0,-75.0,10.0,513.0,-129.0,-72.0,-47.0,55.0,252.0,328.0,337.0,-178.0,-158.0,-154.0,-106.0,7.0,116.0,162.0,-35.0,3
-11.0,-19.0,-21.0,-12.0,12.0,112.0,16.0,-20.0,-206.0,-30.0,-31.0,-28.0,-4.0,-2.0,-93.0,-56.0,-39.0,-73.0,-45.0,-32.0,-15.0,-5.0,-63.0,-49.0,3
36.0,30.0,25.0,17.0,13.0,12.0,13.0,17.0,-87.0,22.0,13.0,11.0,7.0,-18.0,-95.0,-31.0,-11.0,-31.0,-9.0,-12.0,-1.0,4.0,3.0,-7.0,3
140.0,107.0,86.0,73.0,70.0,69.0,90.0,77.0,-231.0,126.0,76.0,66.0,40.0,-35.0,-197.0,-141.0,-13.0,-86.0,-13.0,-6.0,17.0,35.0,-69.0,-66.0,3
-75.0,-76.0,-77.0,-76.0,-85.0,-64.0,-73.0,-72.0,-7.0,-66.0,-63.0,-63.0,-48.0,-4.0,-9.0,-13.0,-39.0,-45.0,-46.0,-45.0,-25.0,8.0,43.0,-19.0,3
82.0,50.0,27.0,-11.0,-75.0,4.0,-35.0,-114.0,-462.0,-9.0,-36.0,-51.0,-106.0,-145.0,-308.0,-140.0,-150.0,-243.0,-239.0,-152.0,-91.0,-32.0,25.0,-112.0,3
49.0,43.0,38.0,15.0,-45.0,-23.0,-31.0,-15.0,-338.0,21.0,-24.0,-40.0,-77.0,-118.0,-187.0,-72.0,-65.0,-207.0,-99.0,-108.0,-98.0,-98.0,-78.0,-53.0,3
92.0,74.0,50.0,25.0,-41.0,-20.0,18.0,16.0,-400.0,64.0,11.0,-8.0,-67.0,-125.0,-284.0,-168.0,-31.0,-105.0,-58.0,-59.0,-90.0,-109.0,-88.0,-82.0,3
43.0,14.0,0.0,-11.0,-34.0,-49.0,-73.0,-134.0,-241.0,-6.0,-19.0,-24.0,-52.0,-80.0,-136.0,-108.0,-67.0,-97.0,-110.0,-63.0,-53.0,-55.0,-63.0,-99.0,3
5.0,4.0,3.0,6.0,-4.0,20.0,-6.0,-69.0,-127.0,-11.0,-18.0,-17.0,-24.0,-54.0,-129.0,-43.0,-28.0,-110.0,-64.0,-29.0,-34.0,-21.0,-24.0,-16.0,3
57.0,52.0,43.0,33.0,2.0,-20.0,10.0,-7.0,-259.0,37.0,17.0,8.0,-3.0,-29.0,-158.0,-80.0,-5.0,-60.0,-26.0,-13.0,-8.0,-10.0,19.0,-20.0,3
-54.0,-43.0,-34.0,-13.0,-4.0,7.0,-45.0,-41.0,97.0,-27.0,-18.0,-15.0,-8.0,7.0,27.0,29.0,-17.0,-28.0,-17.0,-21.0,-17.0,-23.0,-20.0,-14.0,3
0.0,-8.0,-16.0,-15.0,-25.0,-27.0,-41.0,-39.0,-192.0,-20.0,-34.0,-33.0,-42.0,-87.0,-222.0,-124.0,-57.0,-82.0,-65.0,-72.0,-51.0,-50.0,-31.0,-50.0,3
111.0,98.0,77.0,52.0,5.0,-2.0,-6.0,-48.0,-475.0,78.0,36.0,21.0,-17.0,-164.0,-377.0,-231.0,-45.0,-134.0,-64.0,-47.0,-13.0,10.0,-28.0,-110.0,3
-5.0,-3.0,1.0,4.0,5.0,6.0,0.0,4.0,25.0,0.0,2.0,1.0,5.0,10.0,15.0,11.0,14.0,10.0,9.0,4.0,3.0,5.0,18.0,11.0,3
-29.0,-28.0,-31.0,-31.0,-42.0,-64.0,-37.0,-27.0,-8.0,-27.0,-31.0,-33.0,-39.0,-40.0,-36.0,-17.0,-23.0,-26.0,-25.0,-31.0,-25.0,-25.0,-9.0,-23.0,3
144.0,104.0,60.0,30.0,-66.0,-197.0,-35.0,-99.0,-400.0,46.0,4.0,-29.0,-125.0,-177.0,-312.0,-120.0,-120.0,-240.0,-222.0,-128.0,-125.0,-147.0,-103.0,-123.0,3
36.0,12.0,10.0,1.0,-6.0,-14.0,-8.0,12.0,-859.0,-27.0,-8.0,-3.0,-35.0,-286.0,-767.0,-709.0,-29.0,-40.0,-23.0,-31.0,-23.0,-13.0,13.0,-43.0,3
-53.0,-45.0,-40.0,-12.0,46.0,95.0,-43.0,17.0,24.0,-24.0,-8.0,10.0,100.0,133.0,-7.0,-24.0,-33.0,-16.0,8.0,-7.0,42.0,85.0,58.0,-36.0,3
0.0,-1.0,-2.0,-2.0,0.0,-2.0,-3.0,1.0,24.0,4.0,4.0,4.0,7.0,9.0,27.0,11.0,10.0,16.0,13.0,13.0,12.0,13.0,10.0,13.0,3
67.0,31.0,1.0,-14.0,-74.0,-89.0,-50.0,-140.0,-464.0,-8.0,-34.0,-59.0,-137.0,-180.0,-350.0,-172.0,-152.0,-263.0,-246.0,-144.0,-105.0,-83.0,-34.0,-147.0,3
30.0,31.0,29.0,27.0,30.0,21.0,17.0,23.0,4.0,25.0,27.0,26.0,22.0,10.0,-4.0,14.0,13.0,13.0,18.0,15.0,18.0,17.0,18.0,8.0,3
-11.0,-8.0,-8.0,-10.0,-8.0,-6.0,-8.0,-16.0,-23.0,-8.0,-9.0,-8.0,-3.0,-4.0,-13.0,-12.0,-16.0,-16.0,-13.0,-11.0,0.0,5.0,1.0,-11.0,3
-8.0,-11.0,-14.0,-12.0,-19.0,-20.0,-13.0,-18.0,-98.0,-21.0,-28.0,-27.0,-30.0,-36.0,-121.0,-33.0,-49.0,-65.0,-58.0,-57.0,-41.0,-37.0,-24.0,-44.0,3
-8.0,-13.0,-15.0,-27.0,-44.0,-23.0,1.0,-52.0,-65.0,-22.0,-33.0,-40.0,-49.0,-40.0,-64.0,-30.0,-180.0,-271.0,-216.0,-140.0,-78.0,-83.0,-139.0,-285.0,3
27.0,34.0,37.0,33.0,25.0,35.0,28.0,32.0,-31.0,25.0,30.0,29.0,19.0,-10.0,-35.0,-33.0,50.0,16.0,27.0,39.0,46.0,43.0,36.0,42.0,3
13.0,16.0,16.0,19.0,28.0,35.0,14.0,14.0,47.0,20.0,25.0,21.0,31.0,27.0,36.0,29.0,34.0,32.0,33.0,33.0,34.0,35.0,33.0,33.0,3
-10.0,-18.0,-17.0,-14.0,-18.0,-31.0,-23.0,-15.0,-10.0,-3.0,-4.0,0.0,-12.0,-6.0,-1.0,-11.0,15.0,14.0,9.0,6.0,4.0,2.0,15.0,3.0,3
2.0,2.0,2.0,4.0,5.0,3.0,4.0,4.0,6.0,4.0,4.0,5.0,6.0,4.0,4.0,3.0,3.0,9.0,10.0,9.0,7.0,3.0,-2.0,7.0,3
-15.0,-10.0,-8.0,-1.0,9.0,46.0,26.0,18.0,8.0,-10.0,-2.0,4.0,17.0,9.0,16.0,1.0,-10.0,-1.0,-1.0,0.0,2.0,-7.0,-60.0,-24.0,3
37.0,9.0,-6.0,-16.0,-39.0,-52.0,-70.0,-127.0,-236.0,-10.0,-23.0,-27.0,-56.0,-81.0,-135.0,-109.0,-67.0,-99.0,-110.0,-64.0,-56.0,-57.0,-62.0,-99.0,3
27.0,23.0,16.0,4.0,-18.0,-55.0,4.0,-24.0,-78.0,10.0,1.0,-4.0,-8.0,-28.0,-62.0,-22.0,-16.0,-103.0,-79.0,-30.0,27.0,76.0,124.0,-53.0,3
66.0,70.0,74.0,63.0,48.0,50.0,53.0,32.0,8.0,50.0,39.0,33.0,10.0,13.0,1.0,29.0,55.0,-45.0,-18.0,10.0,-4.0,-12.0,3.0,17.0,3
-8.0,-8.0,-8.0,-6.0,-2.0,-11.0,0.0,0.0,32.0,-4.0,-4.0,-2.0,-4.0,-10.0,-1.0,3.0,4.0,5.0,1.0,0.0,-3.0,-4.0,-16.0,-1.0,3
-337.0,-279.0,-204.0,-110.0,22.0,-50.0,-21.0,57.0,1506.0,-152.0,-58.0,-1.0,103.0,307.0,810.0,353.0,48.0,157.0,76.0,81.0,125.0,213.0,327.0,160.0,3
-24.0,-23.0,-20.0,-14.0,-9.0,-10.0,1.0,-2.0,50.0,-16.0,-10.0,-8.0,6.0,29.0,27.0,3.0,-16.0,-16.0,-16.0,-12.0,-9.0,4.0,6.0,-15.0,3
46.0,35.0,27.0,6.0,-20.0,-39.0,-36.0,-45.0,-32.0,19.0,-13.0,-27.0,-53.0,-32.0,-36.0,-4.0,0.0,-169.0,-133.0,-78.0,-81.0,-109.0,-142.0,-140.0,3
-50.0,-66.0,-71.0,-51.0,-16.0,97.0,1.0,14.0,15.0,-45.0,-38.0,-32.0,11.0,62.0,25.0,9.0,11.0,12.0,9.0,9.0,23.0,48.0,76.0,27.0,3
-271.0,-167.0,-107.0,-28.0,120.0,183.0,82.0,107.0,1228.0,-68.0,14.0,31.0,128.0,469.0,1215.0,672.0,155.0,361.0,275.0,138.0,29.0,-77.0,-206.0,186.0,3
-15.0,-13.0,-10.0,-9.0,-11.0,-32.0,-5.0,-4.0,57.0,-10.0,-11.0,-14.0,-26.0,-16.0,14.0,28.0,-14.0,-15.0,-17.0,-15.0,-40.0,-54.0,-45.0,-18.0,3
-35.0,-28.0,-22.0,-15.0,-4.0,-2.0,-15.0,-14.0,44.0,-21.0,-12.0,-8.0,1.0,12.0,12.0,5.0,-7.0,-10.0,-9.0,-3.0,0.0,1.0,-1.0,0.0,3
58.0,48.0,32.0,27.0,-5.0,-4.0,-100.0,-84.0,-391.0,42.0,8.0,-3.0,1.0,-35.0,-240.0,-144.0,-15.0,-86.0,-43.0,-28.0,-5.0,21.0,119.0,-41.0,3
-14.0,-9.0,-12.0,-16.0,-29.0,-29.0,-21.0,-12.0,-89.0,-16.0,-15.0,-14.0,-1.0,19.0,-11.0,-4.0,-1.0,-7.0,-1.0,-2.0,18.0,27.0,14.0,-5.0,3
-40.0,-36.0,-37.0,-36.0,-37.0,-11.0,-24.0,-33.0,-45.0,-38.0,-32.0,-32.0,-19.0,-21.0,-41.0,-47.0,-29.0,-25.0,-28.0,-24.0,-10.0,-2.0,-14.0,-33.0,3
15.0,17.0,18.0,12.0,9.0,5.0,8.0,13.0,32.0,16.0,16.0,16.0,14.0,17.0,27.0,22.0,21.0,26.0,23.0,19.0,17.0,20.0,21.0,25.0,3
-5.0,-6.0,-3.0,-8.0,-9.0,-9.0,-7.0,-4.0,-15.0,-8.0,-8.0,-8.0,-11.0,-12.0,-18.0,-8.0,-17.0,-22.0,-16.0,-18.0,-18.0,-18.0,-15.0,-17.0,3
8.0,9.0,8.0,10.0,13.0,19.0,18.0,14.0,12.0,9.0,9.0,11.0,14.0,19.0,-6.0,17.0,8.0,8.0,10.0,14.0,16.0,17.0,13.0,9.0,3
29.0,29.0,32.0,46.0,66.0,64.0,33.0,20.0,22.0,25.0,29.0,31.0,35.0,8.0,-3.0,13.0,13.0,-5.0,13.0,7.0,4.0,-20.0,-53.0,-9.0,3
-7.0,-6.0,-5.0,-6.0,-9.0,-19.0,-21.0,-14.0,-3.0,-5.0,-6.0,-4.0,-9.0,-24.0,-11.0,-8.0,-7.0,-1.0,0.0,-3.0,-7.0,-10.0,-8.0,0.0,3
8.0,15.0,17.0,13.0,5.0,39.0,12.0,20.0,5.0,5.0,1.0,0.0,-28.0,-38.0,-18.0,-14.0,-2.0,-2.0,-1.0,-12.0,-43.0,-65.0,-51.0,-9.0,3
10.0,9.0,10.0,8.0,7.0,6.0,7.0,4.0,3.0,8.0,5.0,7.0,5.0,5.0,5.0,10.0,-1.0,-6.0,-5.0,-4.0,-1.0,-3.0,-1.0,-1.0,3
80.0,68.0,54.0,33.0,11.0,115.0,58.0,-3.0,-415.0,37.0,18.0,8.0,6.0,-2.0,-168.0,-70.0,-27.0,-94.0,-84.0,-11.0,-17.0,-27.0,-41.0,-48.0,3
5.0,4.0,7.0,8.0,5.0,-7.0,10.0,14.0,63.0,10.0,13.0,14.0,21.0,40.0,43.0,25.0,20.0,25.0,19.0,17.0,23.0,17.0,17.0,23.0,3
51.0,42.0,37.0,29.0,14.0,18.0,25.0,38.0,-268.0,21.0,12.0,9.0,-10.0,-57.0,-186.0,-142.0,-46.0,-79.0,-43.0,-47.0,-18.0,-18.0,-11.0,-43.0,3
2.0,3.0,7.0,5.0,8.0,8.0,7.0,9.0,27.0,12.0,13.0,15.0,19.0,25.0,33.0,26.0,27.0,34.0,29.0,27.0,27.0,39.0,46.0,33.0,3
-11.0,-13.0,-7.0,-3.0,5.0,24.0,7.0,3.0,5.0,-7.0,-1.0,0.0,12.0,24.0,3.0,15.0,3.0,0.0,2.0,4.0,10.0,11.0,5.0,5.0,3
-1.0,0.0,2.0,6.0,18.0,24.0,19.0,18.0,83.0,9.0,11.0,14.0,22.0,49.0,69.0,37.0,6.0,6.0,6.0,11.0,14.0,19.0,19.0,10.0,3
-20.0,-47.0,-65.0,-57.0,-4.0,34.0,66.0,115.0,728.0,-121.0,-60.0,-39.0,45.0,166.0,392.0,470.0,-123.0,-102.0,-103.0,-84.0,-7.0,24.0,77.0,-10.0,3
-367.0,-292.0,-198.0,-128.0,76.0,36.0,108.0,257.0,1052.0,-123.0,-21.0,9.0,211.0,370.0,737.0,235.0,237.0,426.0,380.0,192.0,190.0,201.0,70.0,290.0,3
27.0,5.0,-6.0,-25.0,-47.0,-41.0,-27.0,-27.0,-346.0,-25.0,-33.0,-37.0,-78.0,-249.0,-374.0,-233.0,-6.0,-6.0,-8.0,-14.0,-19.0,-14.0,8.0,-4.0,3
-19.0,-17.0,-16.0,-9.0,1.0,14.0,4.0,14.0,58.0,-8.0,-5.0,-2.0,13.0,22.0,21.0,19.0,11.0,22.0,20.0,10.0,21.0,23.0,25.0,11.0,3
-29.0,-18.0,-12.0,-3.0,0.0,23.0,-2.0,-14.0,70.0,-6.0,4.0,8.0,21.0,41.0,25.0,14.0,5.0,4.0,8.0,7.0,29.0,42.0,43.0,13.0,3
-10.0,-5.0,2.0,12.0,41.0,182.0,65.0,39.0,7.0,-3.0,6.0,13.0,40.0,78.0,31.0,35.0,51.0,32.0,42.0,48.0,88.0,109.0,107.0,72.0,3
-43.0,-37.0,-32.0,-10.0,23.0,113.0,-24.0,-32.0,28.0,-18.0,0.0,12.0,70.0,103.0,25.0,4.0,25.0,29.0,35.0,43.0,111.0,183.0,148.0,31.0,3
106.0,95.0,76.0,38.0,-65.0,-404.0,52.0,160.0,67.0,78.0,39.0,22.0,-74.0,-161.0,-28.0,31.0,27.0,58.0,33.0,-7.0,-73.0,-118.0,-115.0,-4.0,3
-8.0,-12.0,-12.0,-10.0,-4.0,-4.0,-5.0,8.0,62.0,-4.0,-7.0,-3.0,2.0,13.0,22.0,24.0,0.0,7.0,7.0,-6.0,-5.0,-12.0,-16.0,-9.0,3
55.0,53.0,54.0,63.0,84.0,108.0,104.0,110.0,122.0,55.0,53.0,56.0,81.0,81.0,61.0,69.0,59.0,70.0,67.0,51.0,42.0,34.0,46.0,56.0,3
19.0,27.0,30.0,13.0,-6.0,-66.0,-25.0,14.0,51.0,15.0,11.0,8.0,-1.0,-14.0,9.0,8.0,17.0,36.0,19.0,17.0,0.0,-8.0,-5.0,0.0,3
-4.0,7.0,9.0,6.0,-4.0,-23.0,-13.0,-4.0,-72.0,-5.0,-4.0,-4.0,-6.0,-16.0,-12.0,-2.0,8.0,1.0,3.0,-2.0,4.0,3.0,-13.0,8.0,3
5.0,7.0,12.0,20.0,35.0,104.0,3.0,29.0,50.0,10.0,12.0,17.0,31.0,23.0,15.0,36.0,23.0,2.0,32.0,21.0,10.0,-21.0,-56.0,10.0,3
-4.0,0.0,8.0,8.0,19.0,0.0,10.0,35.0,50.0,3.0,8.0,12.0,20.0,4.0,28.0,23.0,17.0,27.0,38.0,14.0,14.0,12.0,13.0,24.0,3
-16.0,-14.0,-11.0,-2.0,17.0,32.0,26.0,18.0,32.0,-6.0,2.0,8.0,28.0,44.0,51.0,60.0,19.0,40.0,42.0,27.0,34.0,34.0,35.0,58.0,3
8.0,7.0,6.0,-2.0,-19.0,-25.0,5.0,8.0,32.0,6.0,3.0,-4.0,-14.0,-22.0,-4.0,10.0,8.0,7.0,5.0,-2.0,-4.0,-4.0,-16.0,8.0,3
-3.0,-3.0,-1.0,4.0,17.0,63.0,19.0,4.0,-10.0,-2.0,0.0,3.0,15.0,25.0,3.0,-3.0,-2.0,6.0,1.0,1.0,-2.0,-9.0,-18.0,-5.0,3
18.0,0.0,-16.0,-6.0,-10.0,-40.0,5.0,3.0,-10.0,-2.0,-5.0,-11.0,-6.0,-28.0,-5.0,2.0,8.0,-28.0,-21.0,-3.0,-1.0,-6.0,8.0,-17.0,3
19.0,17.0,14.0,14.0,8.0,0.0,12.0,14.0,13.0,17.0,13.0,14.0,10.0,15.0,13.0,18.0,11.0,12.0,10.0,10.0,12.0,14.0,17.0,12.0,3
6.0,-3.0,-4.0,-10.0,-27.0,-33.0,0.0,37.0,-352.0,-32.0,-33.0,-32.0,-41.0,-38.0,-314.0,-116.0,-99.0,-148.0,-111.0,-100.0,-64.0,-58.0,-36.0,-109.0,3
-9.0,-6.0,-2.0,12.0,20.0,1.0,16.0,-4.0,139.0,13.0,16.0,20.0,12.0,20.0,18.0,39.0,19.0,-23.0,15.0,17.0,19.0,22.0,27.0,42.0,3
-45.0,-41.0,-37.0,-32.0,-32.0,-27.0,-55.0,-49.0,-82.0,-37.0,-33.0,-30.0,-18.0,4.0,-58.0,-40.0,-45.0,-51.0,-38.0,-23.0,4.0,18.0,24.0,-38.0,3
-1.0,-1.0,-3.0,1.0,6.0,3.0,16.0,10.0,10.0,0.0,0.0,0.0,5.0,13.0,10.0,4.0,-9.0,-7.0,-11.0,-3.0,-1.0,-3.0,-12.0,-8.0,3
126.0,89.0,67.0,38.0,-6.0,-12.0,42.0,17.0,-483.0,43.0,14.0,7.0,-62.0,-203.0,-376.0,-203.0,-188.0,-150.0,-149.0,-95.0,-115.0,-144.0,-154.0,-79.0,3
-254.0,-239.0,-193.0,-128.0,62.0,26.0,6.0,178.0,574.0,-82.0,-7.0,27.0,178.0,202.0,529.0,12.0,105.0,362.0,370.0,172.0,191.0,227.0,218.0,353.0,3
128.0,112.0,84.0,34.0,-60.0,-180.0,-14.0,-48.0,-582.0,60.0,7.0,-22.0,-124.0,-178.0,-318.0,-156.0,-66.0,-148.0,-146.0,-75.0,-139.0,-192.0,-141.0,-81.0,3
80.0,54.0,29.0,11.0,-14.0,50.0,1.0,16.0,-427.0,19.0,-19.0,-25.0,-55.0,-126.0,-350.0,-233.0,-128.0,-136.0,-165.0,-126.0,-60.0,-2.0,34.0,-132.0,3
27.0,28.0,29.0,27.0,27.0,23.0,23.0,25.0,23.0,28.0,29.0,28.0,30.0,29.0,26.0,29.0,23.0,22.0,22.0,21.0,25.0,25.0,25.0,24.0,3
-8.0,-11.0,-13.0,-8.0,2.0,15.0,17.0,16.0,35.0,-2.0,-3.0,-2.0,5.0,16.0,21.0,19.0,5.0,8.0,4.0,1.0,-1.0,-5.0,-12.0,9.0,3
-2.0,2.0,6.0,12.0,21.0,34.0,2.0,3.0,22.0,8.0,12.0,13.0,24.0,19.0,10.0,7.0,8.0,11.0,13.0,9.0,11.0,14.0,15.0,3.0,3
6.0,4.0,3.0,3.0,2.0,0.0,6.0,2.0,8.0,8.0,8.0,5.0,6.0,7.0,17.0,8.0,6.0,8.0,7.0,8.0,10.0,13.0,19.0,10.0,3
269.0,216.0,155.0,88.0,14.0,31.0,37.0,-10.0,-1062.0,145.0,69.0,42.0,-3.0,-71.0,-402.0,-251.0,5.0,-50.0,-8.0,-8.0,4.0,18.0,36.0,-37.0,3
-12.0,-9.0,0.0,6.0,27.0,103.0,36.0,20.0,-12.0,-11.0,0.0,8.0,34.0,38.0,-8.0,4.0,35.0,25.0,32.0,31.0,42.0,35.0,27.0,58.0,3
181.0,155.0,123.0,52.0,-15.0,17.0,1.0,-33.0,-1016.0,64.0,12.0,-12.0,-65.0,-171.0,-399.0,-241.0,-27.0,-66.0,-23.0,-39.0,-65.0,-93.0,-47.0,-60.0,3
13.0,12.0,12.0,10.0,9.0,9.0,8.0,8.0,13.0,9.0,5.0,8.0,3.0,-13.0,-20.0,-11.0,4.0,10.0,7.0,6.0,4.0,2.0,-9.0,-1.0,3
3.0,2.0,1.0,2.0,2.0,-1.0,-4.0,0.0,19.0,4.0,4.0,7.0,5.0,4.0,21.0,6.0,7.0,12.0,9.0,9.0,7.0,7.0,1.0,6.0,3
72.0,47.0,44.0,21.0,-28.0,28.0,82.0,-42.0,-292.0,17.0,6.0,-7.0,-68.0,-136.0,-223.0,-80.0,-70.0,-187.0,-131.0,-71.0,-80.0,-86.0,-31.0,-54.0,3
-22.0,-35.0,-31.0,-21.0,8.0,44.0,5.0,35.0,37.0,-18.0,-8.0,-2.0,32.0,47.0,31.0,19.0,29.0,42.0,42.0,33.0,50.0,77.0,99.0,45.0,3
0.0,8.0,18.0,18.0,21.0,88.0,12.0,4.0,-12.0,0.0,9.0,14.0,31.0,23.0,-11.0,3.0,38.0,27.0,35.0,34.0,47.0,45.0,46.0,58.0,3
5.0,7.0,8.0,11.0,11.0,21.0,0.0,5.0,14.0,8.0,9.0,10.0,17.0,33.0,11.0,8.0,-3.0,-1.0,-3.0,5.0,7.0,8.0,-2.0,-7.0,3
16.0,15.0,11.0,8.0,-4.0,-40.0,21.0,25.0,36.0,14.0,5.0,1.0,-23.0,-53.0,11.0,11.0,14.0,14.0,10.0,11.0,-16.0,-50.0,-67.0,3.0,3
-27.0,-28.0,-26.0,-23.0,-24.0,-12.0,-27.0,-18.0,1.0,-25.0,-21.0,-18.0,-7.0,4.0,-12.0,-10.0,-15.0,-14.0,-17.0,-11.0,7.0,30.0,40.0,-3.0,3
-5.0,-4.0,-2.0,-8.0,-12.0,-6.0,-10.0,0.0,-16.0,-8.0,-10.0,-16.0,-42.0,-51.0,-54.0,-35.0,-10.0,-3.0,-6.0,-14.0,-46.0,-71.0,-62.0,-11.0,3
-12.0,-9.0,-6.0,5.0,18.0,5.0,14.0,13.0,116.0,7.0,11.0,14.0,17.0,37.0,40.0,40.0,5.0,-5.0,6.0,11.0,17.0,19.0,10.0,11.0,3
-205.0,-189.0,-142.0,-85.0,14.0,-55.0,1.0,97.0,783.0,-24.0,10.0,49.0,151.0,289.0,780.0,118.0,224.0,374.0,337.0,223.0,206.0,239.0,184.0,223.0,3
9.0,11.0,15.0,9.0,1.0,1.0,-5.0,-9.0,19.0,4.0,-2.0,1.0,-4.0,4.0,10.0,13.0,41.0,3.0,2.0,-5.0,-5.0,-7.0,-5.0,2.0,3
-31.0,-27.0,-22.0,2.0,3.0,-2.0,-23.0,-72.0,64.0,-8.0,1.0,-1.0,8.0,35.0,34.0,45.0,-23.0,-92.0,-23.0,-7.0,24.0,27.0,17.0,-9.0,3
-8.0,-18.0,-24.0,-27.0,23.0,101.0,-3.0,128.0,181.0,55.0,36.0,59.0,85.0,76.0,200.0,-161.0,30.0,133.0,170.0,59.0,77.0,124.0,70.0,-2.0,3
-12.0,-6.0,-8.0,-14.0,-31.0,-43.0,-32.0,-23.0,-10.0,-11.0,-14.0,-16.0,-13.0,-14.0,-17.0,-22.0,-14.0,-10.0,-15.0,-19.0,-19.0,-28.0,-34.0,-22.0,3
-5.0,-3.0,0.0,1.0,0.0,-9.0,-17.0,-6.0,25.0,-1.0,0.0,1.0,5.0,10.0,19.0,13.0,15.0,8.0,7.0,7.0,11.0,16.0,17.0,9.0,3
-19.0,-14.0,-10.0,-6.0,1.0,-6.0,-18.0,-9.0,21.0,-11.0,-5.0,-4.0,4.0,1.0,6.0,0.0,-1.0,2.0,3.0,-2.0,-6.0,-7.0,-5.0,-6.0,3
-11.0,-11.0,-10.0,-8.0,-9.0,-4.0,-9.0,-4.0,-1.0,-10.0,-8.0,-8.0,2.0,40.0,36.0,19.0,-11.0,-10.0,-11.0,-11.0,-3.0,6.0,10.0,-6.0,3
1.0,0.0,-1.0,-4.0,-3.0,-4.0,-3.0,0.0,-4.0,0.0,0.0,0.0,-6.0,-7.0,-3.0,3.0,0.0,1.0,1.0,0.0,-4.0,-4.0,-6.0,-2.0,3
-106.0,-110.0,-93.0,-47.0,59.0,101.0,97.0,128.0,1159.0,34.0,25.0,47.0,98.0,285.0,636.0,371.0,53.0,74.0,55.0,45.0,59.0,62.0,64.0,45.0,3
79.0,59.0,30.0,5.0,-38.0,-35.0,-69.0,-82.0,-443.0,59.0,4.0,-12.0,-40.0,-83.0,-328.0,-212.0,-48.0,-144.0,-76.0,-66.0,-44.0,-8.0,29.0,-82.0,3
35.0,30.0,31.0,16.0,10.0,25.0,13.0,17.0,43.0,24.0,3.0,-3.0,-5.0,3.0,6.0,14.0,14.0,-64.0,-60.0,-51.0,-45.0,-53.0,-88.0,-126.0,3
96.0,84.0,56.0,37.0,-12.0,14.0,55.0,25.0,-382.0,64.0,16.0,1.0,-28.0,-83.0,-279.0,-161.0,-22.0,-105.0,-57.0,-43.0,-21.0,5.0,27.0,-45.0,3
73.0,44.0,17.0,-1.0,-28.0,39.0,35.0,44.0,-425.0,12.0,-28.0,-33.0,-55.0,-120.0,-333.0,-227.0,-132.0,-140.0,-171.0,-132.0,-61.0,0.0,41.0,-140.0,3
-153.0,-148.0,-155.0,-102.0,8.0,13.0,-88.0,26.0,1036.0,-96.0,-71.0,-25.0,133.0,460.0,789.0,421.0,-73.0,-39.0,-4.0,-35.0,46.0,125.0,261.0,66.0,3
24.0,25.0,29.0,37.0,51.0,64.0,29.0,45.0,47.0,25.0,25.0,35.0,42.0,54.0,19.0,38.0,28.0,9.0,35.0,25.0,31.0,35.0,21.0,20.0,3
332.0,241.0,193.0,74.0,-78.0,-52.0,22.0,-61.0,-1014.0,93.0,-2.0,-53.0,-210.0,-560.0,-950.0,-515.0,-114.0,-331.0,-235.0,-192.0,-180.0,-185.0,-105.0,-142.0,3
17.0,20.0,21.0,26.0,30.0,25.0,21.0,22.0,28.0,17.0,20.0,21.0,22.0,17.0,19.0,16.0,12.0,15.0,16.0,14.0,13.0,8.0,-1.0,7.0,3
-11.0,-6.0,-5.0,-14.0,-22.0,-29.0,-7.0,-24.0,-64.0,-13.0,-13.0,-15.0,-26.0,-32.0,-6.0,24.0,-6.0,-20.0,-14.0,-15.0,-31.0,-71.0,-29.0,-2.0,3
20.0,20.0,18.0,16.0,14.0,4.0,16.0,22.0,19.0,16.0,16.0,14.0,12.0,27.0,33.0,19.0,14.0,17.0,14.0,12.0,2.0,-3.0,-15.0,9.0,3
-9.0,-6.0,-5.0,-14.0,-10.0,0.0,-8.0,11.0,20.0,-6.0,-5.0,-6.0,7.0,3.0,-4.0,-6.0,9.0,18.0,3.0,0.0,-5.0,-16.0,-38.0,-15.0,3
4.0,5.0,3.0,2.0,-2.0,-2.0,3.0,2.0,-2.0,3.0,3.0,4.0,1.0,0.0,-2.0,-3.0,0.0,0.0,0.0,2.0,3.0,5.0,6.0,1.0,3
8.0,8.0,6.0,19.0,17.0,10.0,10.0,13.0,40.0,18.0,12.0,16.0,28.0,19.0,8.0,27.0,16.0,18.0,15.0,13.0,27.0,13.0,21.0,18.0,3
40.0,30.0,25.0,18.0,10.0,5.0,-1.0,-51.0,-155.0,40.0,29.0,18.0,5.0,0.0,-44.0,-24.0,-13.0,-81.0,-7.0,2.0,13.0,4.0,0.0,-4.0,3
20.0,-1.0,-12.0,-22.0,-38.0,-52.0,-58.0,-96.0,-170.0,-16.0,-26.0,-31.0,-52.0,-76.0,-88.0,-82.0,-49.0,-77.0,-82.0,-55.0,-55.0,-55.0,-57.0,-77.0,3
-59.0,-50.0,-46.0,-47.0,-58.0,-28.0,-46.0,-54.0,-72.0,-48.0,-48.0,-38.0,-22.0,-20.0,-39.0,-27.0,-9.0,-16.0,-12.0,-18.0,6.0,29.0,64.0,6.0,3
-2.0,-2.0,-2.0,-4.0,-6.0,-15.0,5.0,6.0,-3.0,-7.0,-6.0,-6.0,-10.0,-17.0,-13.0,12.0,16.0,21.0,24.0,14.0,12.0,10.0,38.0,47.0,3
-39.0,-33.0,-29.0,-14.0,-5.0,1.0,1.0,-6.0,109.0,-24.0,-17.0,-11.0,-3.0,23.0,48.0,58.0,-28.0,-36.0,-31.0,-27.0,-32.0,-43.0,-69.0,-41.0,3
-166.0,-178.0,-169.0,-104.0,24.0,59.0,35.0,207.0,287.0,-49.0,-17.0,-3.0,34.0,25.0,314.0,-123.0,-27.0,213.0,241.0,54.0,7.0,-19.0,-75.0,178.0,3
-23.0,-19.0,-16.0,-4.0,-4.0,9.0,-38.0,-30.0,10.0,-11.0,-15.0,-11.0,8.0,25.0,-20.0,-12.0,-14.0,-12.0,-11.0,-17.0,0.0,-10.0,-6.0,-14.0,3
3.0,4.0,1.0,2.0,5.0,5.0,7.0,11.0,30.0,6.0,3.0,2.0,5.0,10.0,19.0,12.0,15.0,4.0,2.0,2.0,0.0,0.0,-6.0,-3.0,3
-12.0,-11.0,-13.0,-10.0,-11.0,-11.0,-12.0,-6.0,9.0,-9.0,-9.0,-10.0,-9.0,-7.0,2.0,0.0,-3.0,2.0,0.0,-6.0,-7.0,-8.0,-6.0,-2.0,3
-17.0,-18.0,-19.0,-20.0,-29.0,-35.0,-28.0,-21.0,-49.0,-18.0,-22.0,-22.0,-32.0,-44.0,-45.0,-22.0,-14.0,-29.0,-22.0,-24.0,-23.0,-22.0,18.0,-3.0,3
8.0,7.0,-4.0,-15.0,-42.0,-30.0,-15.0,-44.0,-286.0,-9.0,-26.0,-34.0,-49.0,-92.0,-215.0,-135.0,-49.0,-101.0,-69.0,-55.0,-49.0,-55.0,-26.0,-65.0,3
43.0,32.0,17.0,-16.0,-93.0,-77.0,-61.0,-33.0,-483.0,-19.0,-68.0,-85.0,-150.0,-229.0,-364.0,-131.0,-156.0,-302.0,-196.0,-182.0,-167.0,-165.0,-139.0,-137.0,3
3.0,10.0,18.0,19.0,23.0,-12.0,-8.0,-6.0,16.0,6.0,15.0,19.0,13.0,9.0,19.0,27.0,17.0,40.0,47.0,25.0,15.0,9.0,7.0,54.0,3
102.0,66.0,24.0,-3.0,-94.0,-180.0,-58.0,-131.0,-450.0,5.0,-32.0,-62.0,-161.0,-238.0,-359.0,-174.0,-156.0,-274.0,-252.0,-155.0,-145.0,-158.0,-127.0,-161.0,3
-5.0,-6.0,-6.0,-4.0,0.0,4.0,2.0,-1.0,17.0,-2.0,-1.0,0.0,2.0,8.0,24.0,7.0,7.0,6.0,6.0,5.0,3.0,7.0,13.0,8.0,3
57.0,35.0,21.0,8.0,-19.0,-35.0,6.0,-6.0,-160.0,15.0,1.0,-2.0,-31.0,-57.0,-78.0,-64.0,-28.0,-55.0,-65.0,-31.0,-31.0,-34.0,-33.0,-59.0,3
41.0,35.0,26.0,3.0,-43.0,-51.0,101.0,93.0,-8.0,26.0,11.0,4.0,-18.0,-17.0,-7.0,7.0,23.0,17.0,19.0,14.0,10.0,8.0,-7.0,23.0,3
34.0,35.0,36.0,32.0,33.0,43.0,27.0,29.0,43.0,35.0,36.0,37.0,42.0,50.0,47.0,41.0,38.0,46.0,43.0,38.0,40.0,38.0,30.0,38.0,3
-21.0,-22.0,-25.0,-22.0,-20.0,-18.0,-21.0,-12.0,-1.0,-20.0,-17.0,-19.0,-12.0,-27.0,-16.0,-19.0,-10.0,-5.0,-8.0,-12.0,-12.0,-33.0,-50.0,-22.0,3
-2.0,-16.0,-17.0,-11.0,11.0,32.0,50.0,73.0,50.0,-2.0,3.0,8.0,24.0,19.0,41.0,33.0,34.0,47.0,48.0,36.0,29.0,22.0,12.0,40.0,3
300.0,205.0,158.0,61.0,-74.0,-64.0,11.0,-102.0,-1175.0,76.0,-8.0,-55.0,-207.0,-589.0,-1062.0,-704.0,-188.0,-412.0,-320.0,-188.0,-180.0,-185.0,-127.0,-202.0,3
-4.0,-5.0,-6.0,-4.0,0.0,2.0,-6.0,-6.0,-14.0,-6.0,-7.0,-7.0,-10.0,-21.0,-8.0,-11.0,-8.0,-10.0,-8.0,-7.0,-10.0,-8.0,-10.0,-8.0,3
-16.0,-14.0,-14.0,-12.0,-13.0,-23.0,-16.0,-15.0,-2.0,-13.0,-11.0,-10.0,-17.0,-16.0,0.0,-12.0,-6.0,-4.0,-3.0,-6.0,-11.0,-11.0,-18.0,-11.0,3
-40.0,-47.0,-10.0,-3.0,68.0,51.0,-22.0,38.0,598.0,-52.0,-5.0,31.0,77.0,153.0,473.0,172.0,-56.0,14.0,19.0,7.0,32.0,54.0,23.0,45.0,3
4.0,0.0,-11.0,-22.0,-55.0,-35.0,-71.0,-91.0,-310.0,-8.0,-36.0,-44.0,-50.0,-35.0,-194.0,-108.0,-55.0,-129.0,-82.0,-72.0,-61.0,-65.0,-77.0,-64.0,3
67.0,62.0,56.0,37.0,3.0,-70.0,-33.0,-58.0,-81.0,37.0,20.0,15.0,-6.0,3.0,-76.0,-6.0,-13.0,-93.0,-76.0,-40.0,-56.0,-78.0,-72.0,-51.0,3
-7.0,-9.0,-9.0,-6.0,2.0,-4.0,11.0,15.0,50.0,-5.0,-5.0,-4.0,-7.0,-7.0,8.0,13.0,-7.0,-9.0,-9.0,-4.0,-8.0,-5.0,-1.0,-3.0,3
35.0,25.0,14.0,13.0,-5.0,-37.0,-31.0,-68.0,-285.0,19.0,12.0,0.0,-35.0,-50.0,-224.0,-104.0,-58.0,-188.0,-82.0,-80.0,-42.0,-39.0,11.0,-52.0,3
1.0,2.0,0.0,1.0,3.0,4.0,4.0,9.0,29.0,5.0,2.0,2.0,6.0,10.0,17.0,12.0,15.0,3.0,3.0,4.0,3.0,4.0,-3.0,-3.0,3
18.0,12.0,14.0,12.0,10.0,7.0,7.0,16.0,-4.0,8.0,17.0,21.0,5.0,-3.0,-11.0,6.0,7.0,9.0,12.0,9.0,14.0,19.0,28.0,12.0,3
-31.0,-31.0,-27.0,-22.0,-9.0,0.0,-31.0,-29.0,4.0,-25.0,-22.0,-20.0,-12.0,7.0,8.0,-10.0,-10.0,-8.0,-6.0,-10.0,-9.0,-8.0,-15.0,-11.0,3
-6.0,-8.0,-12.0,-17.0,-32.0,-58.0,-50.0,-94.0,-114.0,0.0,-8.0,-18.0,-41.0,-42.0,-56.0,-22.0,-55.0,-124.0,-49.0,-40.0,-32.0,-41.0,-31.0,-47.0,3
8.0,13.0,12.0,16.0,14.0,9.0,13.0,18.0,11.0,9.0,14.0,18.0,14.0,17.0,16.0,16.0,12.0,34.0,31.0,25.0,23.0,24.0,35.0,56.0,3
118.0,58.0,45.0,41.0,102.0,145.0,23.0,41.0,-47.0,148.0,103.0,101.0,129.0,96.0,-133.0,-281.0,23.0,-15.0,18.0,22.0,70.0,105.0,25.0,-59.0,3
12.0,13.0,12.0,12.0,10.0,7.0,8.0,4.0,-2.0,9.0,7.0,8.0,6.0,6.0,1.0,7.0,-7.0,-7.0,-7.0,-5.0,0.0,1.0,4.0,-4.0,3
-41.0,-23.0,-18.0,-12.0,8.0,25.0,39.0,66.0,155.0,-6.0,2.0,9.0,31.0,54.0,74.0,50.0,174.0,170.0,159.0,104.0,63.0,57.0,93.0,228.0,3
-26.0,-23.0,-23.0,-23.0,-23.0,-14.0,-29.0,-22.0,-19.0,-26.0,-24.0,-24.0,-21.0,-27.0,-27.0,-35.0,-22.0,-17.0,-20.0,-23.0,-24.0,-20.0,-18.0,-21.0,3
-192.0,-152.0,-103.0,10.0,237.0,289.0,154.0,221.0,1801.0,-93.0,30.0,108.0,347.0,697.0,1185.0,630.0,91.0,303.0,247.0,150.0,213.0,289.0,238.0,212.0,3
-13.0,-15.0,-18.0,-17.0,-15.0,-14.0,-15.0,-15.0,-19.0,-12.0,-13.0,-13.0,-11.0,-9.0,-19.0,-11.0,-10.0,-10.0,-11.0,-11.0,-9.0,-11.0,-7.0,-11.0,3
5.0,0.0,-1.0,6.0,19.0,25.0,-59.0,-62.0,-49.0,-3.0,-2.0,-2.0,16.0,-53.0,-61.0,-52.0,-8.0,-39.0,-29.0,-31.0,8.0,37.0,29.0,-34.0,3
-17.0,-14.0,-8.0,12.0,40.0,70.0,56.0,87.0,55.0,0.0,4.0,12.0,44.0,42.0,27.0,1.0,-20.0,9.0,32.0,8.0,29.0,53.0,-14.0,-34.0,3
-30.0,-35.0,-32.0,-25.0,-4.0,27.0,-5.0,20.0,28.0,-24.0,-20.0,-18.0,-6.0,-6.0,6.0,-1.0,3.0,18.0,23.0,0.0,-5.0,-4.0,-1.0,14.0,3
-3.0,-3.0,-1.0,5.0,13.0,6.0,1.0,4.0,64.0,1.0,6.0,9.0,17.0,27.0,25.0,27.0,7.0,3.0,4.0,11.0,12.0,15.0,23.0,11.0,3
-2.0,-7.0,-6.0,-14.0,-7.0,39.0,19.0,20.0,-77.0,-8.0,-11.0,-10.0,-4.0,-40.0,-45.0,-10.0,12.0,0.0,8.0,13.0,17.0,20.0,25.0,19.0,3
47.0,39.0,33.0,7.0,-23.0,-11.0,-7.0,-4.0,-136.0,11.0,-2.0,-8.0,-36.0,-106.0,-144.0,-22.0,17.0,19.0,15.0,7.0,0.0,-2.0,9.0,18.0,3
10.0,13.0,14.0,16.0,8.0,-9.0,-37.0,-13.0,-35.0,10.0,11.0,14.0,18.0,45.0,-24.0,-12.0,7.0,2.0,11.0,4.0,20.0,42.0,57.0,6.0,3
-100.0,-139.0,-182.0,-140.0,-59.0,0.0,-132.0,39.0,-175.0,-56.0,-77.0,-73.0,-66.0,-129.0,-81.0,-316.0,-186.0,-43.0,9.0,-101.0,-49.0,19.0,80.0,-11.0,3
-12.0,-8.0,-2.0,-1.0,6.0,12.0,7.0,16.0,35.0,-2.0,4.0,4.0,13.0,17.0,29.0,18.0,3.0,21.0,21.0,12.0,15.0,15.0,3.0,10.0,3
9.0,11.0,12.0,7.0,-8.0,-110.0,-64.0,-41.0,-34.0,-3.0,-7.0,-12.0,-36.0,-74.0,-51.0,-33.0,-27.0,-29.0,-30.0,-33.0,-45.0,-52.0,-41.0,-23.0,3
16.0,13.0,14.0,12.0,10.0,16.0,25.0,20.0,54.0,13.0,10.0,12.0,15.0,43.0,73.0,76.0,25.0,29.0,23.0,22.0,22.0,29.0,51.0,42.0,3
-6.0,-8.0,-8.0,-9.0,-6.0,5.0,-6.0,-2.0,-39.0,-11.0,-12.0,-12.0,-14.0,-30.0,-59.0,-56.0,-26.0,-24.0,-17.0,-29.0,-23.0,-28.0,-33.0,-41.0,3
5.0,-2.0,-6.0,-4.0,0.0,6.0,38.0,39.0,108.0,17.0,14.0,17.0,33.0,85.0,100.0,93.0,58.0,57.0,53.0,46.0,57.0,69.0,80.0,69.0,3
180.0,135.0,92.0,59.0,-22.0,-47.0,-47.0,-120.0,-581.0,62.0,8.0,5.0,-77.0,-164.0,-479.0,-214.0,-112.0,-224.0,-235.0,-103.0,-109.0,-97.0,-64.0,-187.0,3
14.0,14.0,15.0,15.0,13.0,13.0,13.0,9.0,22.0,10.0,7.0,13.0,6.0,14.0,-10.0,-8.0,-6.0,-5.0,-6.0,-6.0,-6.0,0.0,0.0,-10.0,3
41.0,26.0,-4.0,-7.0,-60.0,-33.0,-32.0,10.0,-94.0,8.0,-76.0,-96.0,-127.0,-142.0,-239.0,-80.0,-185.0,-363.0,-253.0,-235.0,-181.0,-192.0,-164.0,-178.0,3
102.0,34.0,-23.0,-67.0,-99.0,-23.0,-7.0,112.0,-622.0,20.0,-53.0,-64.0,-142.0,-261.0,-444.0,-371.0,-258.0,-290.0,-243.0,-211.0,-191.0,-127.0,-21.0,-214.0,3
-13.0,14.0,13.0,3.0,-55.0,-40.0,8.0,-41.0,-65.0,19.0,28.0,16.0,-35.0,53.0,-33.0,-48.0,54.0,48.0,25.0,29.0,8.0,0.0,18.0,31.0,3
85.0,45.0,23.0,-7.0,-78.0,-42.0,-35.0,-1.0,-559.0,-14.0,-71.0,-95.0,-163.0,-341.0,-566.0,-377.0,-221.0,-338.0,-232.0,-232.0,-182.0,-171.0,-160.0,-190.0,3
-13.0,-12.0,-17.0,-19.0,-35.0,-61.0,-31.0,-29.0,-52.0,-12.0,-20.0,-22.0,-34.0,-11.0,-28.0,4.0,-4.0,-32.0,-19.0,-14.0,-8.0,8.0,40.0,6.0,3
41.0,4.0,-17.0,-48.0,-29.0,-12.0,-86.0,46.0,-202.0,29.0,-24.0,-23.0,-37.0,-107.0,-197.0,-250.0,-80.0,-43.0,-49.0,-81.0,-56.0,-15.0,13.0,-96.0,3
-10.0,-10.0,-15.0,-1.0,8.0,60.0,42.0,21.0,-14.0,-14.0,-18.0,-12.0,27.0,57.0,-32.0,0.0,-5.0,-57.0,-16.0,-9.0,-9.0,-8.0,-42.0,-7.0,3
15.0,21.0,26.0,27.0,32.0,15.0,-3.0,-9.0,24.0,18.0,24.0,27.0,22.0,14.0,28.0,33.0,31.0,54.0,59.0,32.0,11.0,-4.0,4.0,70.0,3
-8.0,-6.0,-2.0,-4.0,1.0,9.0,-8.0,-5.0,-12.0,-5.0,3.0,5.0,19.0,18.0,0.0,-3.0,10.0,21.0,18.0,10.0,24.0,32.0,42.0,20.0,3
80.0,21.0,-36.0,-37.0,-19.0,-40.0,-64.0,23.0,-433.0,42.0,-16.0,-19.0,-55.0,-176.0,-287.0,-341.0,-227.0,-188.0,-129.0,-154.0,-150.0,-122.0,-130.0,-163.0,3
-32.0,-32.0,-29.0,-29.0,-27.0,-28.0,-25.0,-8.0,8.0,-23.0,-20.0,-22.0,-19.0,-16.0,4.0,3.0,-14.0,6.0,5.0,-1.0,-2.0,1.0,11.0,12.0,3
14.0,-20.0,-25.0,-2.0,32.0,27.0,-18.0,15.0,81.0,13.0,7.0,19.0,27.0,6.0,59.0,-54.0,-35.0,-49.0,3.0,-5.0,21.0,58.0,96.0,8.0,3
-45.0,-44.0,-39.0,-42.0,-51.0,-70.0,-26.0,-23.0,31.0,-37.0,-37.0,-36.0,-49.0,-45.0,-18.0,-19.0,-37.0,-39.0,-36.0,-36.0,-40.0,-43.0,-39.0,-35.0,3
9.0,8.0,7.0,12.0,16.0,37.0,17.0,8.0,46.0,15.0,16.0,17.0,25.0,58.0,49.0,39.0,29.0,21.0,25.0,25.0,49.0,64.0,74.0,32.0,3
157.0,98.0,65.0,39.0,-4.0,-77.0,-187.0,-428.0,-423.0,68.0,29.0,16.0,-54.0,-97.0,-234.0,-151.0,-334.0,-379.0,-361.0,-205.0,-77.0,-72.0,-179.0,-456.0,3
-20.0,-21.0,-19.0,-8.0,7.0,27.0,-12.0,-22.0,-8.0,-21.0,-17.0,-15.0,-2.0,5.0,-27.0,-25.0,-25.0,-31.0,-22.0,-24.0,-38.0,-98.0,-155.0,-50.0,3
14.0,14.0,16.0,11.0,0.0,9.0,26.0,21.0,17.0,15.0,15.0,7.0,0.0,0.0,20.0,12.0,8.0,14.0,11.0,12.0,3.0,-3.0,-17.0,3.0,3
17.0,20.0,20.0,21.0,20.0,6.0,32.0,33.0,31.0,18.0,20.0,19.0,16.0,15.0,20.0,37.0,15.0,35.0,37.0,17.0,8.0,0.0,3.0,41.0,3
-15.0,-14.0,-17.0,-20.0,-27.0,-28.0,-18.0,-15.0,-12.0,-16.0,-18.0,-17.0,-30.0,-35.0,-33.0,-10.0,-16.0,-19.0,-18.0,-17.0,-20.0,-22.0,-20.0,-15.0,3
6.0,6.0,8.0,8.0,15.0,19.0,8.0,9.0,11.0,8.0,10.0,10.0,13.0,21.0,23.0,6.0,10.0,15.0,13.0,14.0,11.0,13.0,10.0,7.0,3
63.0,37.0,21.0,8.0,-16.0,-23.0,-27.0,-72.0,-190.0,16.0,4.0,0.0,-31.0,-53.0,-95.0,-73.0,-35.0,-65.0,-77.0,-34.0,-28.0,-30.0,-33.0,-67.0,3
41.0,43.0,46.0,41.0,33.0,46.0,43.0,27.0,-6.0,25.0,25.0,23.0,23.0,27.0,-1.0,20.0,35.0,-43.0,-18.0,8.0,3.0,-15.0,-28.0,11.0,3
18.0,12.0,10.0,7.0,2.0,12.0,4.0,7.0,-82.0,7.0,3.0,0.0,-4.0,-27.0,-92.0,-43.0,-16.0,-27.0,-15.0,-18.0,-12.0,-7.0,-5.0,-15.0,3
70.0,66.0,62.0,48.0,30.0,44.0,74.0,55.0,-57.0,49.0,37.0,36.0,17.0,3.0,8.0,43.0,39.0,14.0,21.0,16.0,-6.0,-39.0,-22.0,34.0,3
-22.0,-19.0,-18.0,-12.0,-14.0,-20.0,-33.0,-32.0,0.0,-16.0,-18.0,-16.0,-5.0,-3.0,-19.0,-10.0,-10.0,-4.0,-9.0,-12.0,3.0,9.0,17.0,-9.0,3
-79.0,-85.0,-54.0,-43.0,54.0,85.0,29.0,106.0,793.0,-103.0,-41.0,5.0,53.0,226.0,631.0,282.0,-83.0,23.0,-10.0,-24.0,-25.0,-25.0,-42.0,35.0,3
-4.0,-5.0,-9.0,-2.0,-3.0,-2.0,-4.0,1.0,10.0,-1.0,-6.0,-5.0,-4.0,-2.0,-4.0,6.0,-8.0,-9.0,-9.0,-10.0,2.0,-2.0,3.0,-10.0,3
-11.0,-10.0,-5.0,-4.0,4.0,23.0,13.0,24.0,33.0,-3.0,0.0,1.0,7.0,17.0,29.0,22.0,-3.0,18.0,16.0,7.0,4.0,6.0,5.0,14.0,3
-4.0,-5.0,-5.0,1.0,13.0,63.0,23.0,6.0,-7.0,-4.0,-1.0,1.0,14.0,32.0,11.0,1.0,-3.0,5.0,0.0,0.0,1.0,-3.0,-17.0,-6.0,3
-31.0,-30.0,-27.0,-40.0,-55.0,29.0,10.0,34.0,43.0,-25.0,-28.0,-33.0,-68.0,-62.0,44.0,-20.0,-10.0,26.0,7.0,-9.0,5.0,36.0,-10.0,-22.0,3
-16.0,-17.0,-15.0,-3.0,11.0,21.0,-18.0,-4.0,35.0,-12.0,-7.0,-7.0,-3.0,14.0,11.0,3.0,5.0,10.0,8.0,-1.0,-23.0,-54.0,-94.0,-18.0,3
-23.0,-26.0,-32.0,-35.0,-35.0,-32.0,16.0,-15.0,-113.0,-32.0,-32.0,-26.0,-9.0,-32.0,-53.0,-25.0,-16.0,-35.0,-26.0,-23.0,-14.0,-8.0,2.0,-19.0,3
-21.0,-19.0,-17.0,-17.0,-16.0,-12.0,-24.0,-17.0,3.0,-17.0,-17.0,-18.0,-13.0,-15.0,-9.0,-13.0,-6.0,-11.0,-12.0,-15.0,-17.0,-17.0,-12.0,-12.0,3
19.0,17.0,8.0,-9.0,-39.0,-25.0,-13.0,-53.0,-294.0,-10.0,-22.0,-29.0,-56.0,-111.0,-158.0,-93.0,-38.0,-81.0,-82.0,-31.0,-37.0,-47.0,-63.0,-57.0,3
53.0,63.0,69.0,92.0,133.0,299.0,144.0,135.0,84.0,52.0,54.0,57.0,66.0,100.0,104.0,63.0,-4.0,32.0,20.0,7.0,-69.0,-200.0,-449.0,-97.0,3
-43.0,-33.0,-35.0,-13.0,15.0,111.0,-29.0,-44.0,-66.0,-40.0,-36.0,-31.0,16.0,2.0,-91.0,-59.0,-28.0,-77.0,-33.0,-16.0,8.0,13.0,-46.0,-37.0,3
-31.0,-30.0,-28.0,-31.0,-29.0,-30.0,-19.0,-16.0,3.0,-25.0,-23.0,-22.0,-12.0,-1.0,0.0,2.0,-1.0,-2.0,7.0,-10.0,-4.0,1.0,13.0,5.0,3
35.0,33.0,29.0,18.0,6.0,-2.0,65.0,67.0,40.0,29.0,20.0,16.0,-4.0,-35.0,17.0,24.0,19.0,23.0,18.0,13.0,0.0,-13.0,-18.0,16.0,3
0.0,4.0,3.0,3.0,2.0,-15.0,0.0,8.0,24.0,4.0,3.0,3.0,-1.0,-4.0,14.0,7.0,-6.0,2.0,5.0,-2.0,-5.0,-8.0,-11.0,-3.0,3
121.0,107.0,88.0,59.0,9.0,25.0,16.0,-27.0,-448.0,72.0,39.0,24.0,-28.0,-84.0,-289.0,-152.0,-6.0,-86.0,-43.0,-18.0,-11.0,-14.0,-8.0,-21.0,3
270.0,179.0,146.0,78.0,-29.0,-52.0,1.0,-159.0,-1110.0,82.0,25.0,-16.0,-155.0,-512.0,-963.0,-722.0,-217.0,-443.0,-356.0,-235.0,-170.0,-166.0,-132.0,-239.0,3
-9.0,-7.0,-6.0,-6.0,-8.0,-19.0,-17.0,-16.0,-31.0,-11.0,-9.0,-10.0,-14.0,-15.0,-13.0,-25.0,-20.0,-18.0,-17.0,-19.0,-20.0,-22.0,-15.0,-20.0,3
62.0,52.0,35.0,37.0,10.0,6.0,29.0,-4.0,-5.0,37.0,29.0,25.0,0.0,-24.0,23.0,32.0,25.0,-10.0,5.0,21.0,22.0,8.0,3.0,19.0,3
70.0,70.0,62.0,51.0,16.0,-58.0,-43.0,-58.0,-276.0,40.0,27.0,18.0,-14.0,-95.0,-148.0,-59.0,3.0,-43.0,-47.0,10.0,0.0,-12.0,-31.0,-13.0,3
16.0,18.0,24.0,37.0,44.0,33.0,-33.0,0.0,17.0,19.0,24.0,27.0,37.0,43.0,-25.0,7.0,41.0,12.0,50.0,42.0,55.0,72.0,92.0,51.0,3
-6.0,-7.0,-5.0,-6.0,-5.0,-18.0,-13.0,-10.0,-3.0,-5.0,-5.0,-4.0,-9.0,-29.0,-13.0,-8.0,-7.0,0.0,1.0,-4.0,-9.0,-12.0,-8.0,0.0,3
-5.0,-5.0,-5.0,-5.0,-4.0,-1.0,-5.0,-4.0,8.0,-2.0,-3.0,-3.0,0.0,-1.0,1.0,-1.0,5.0,8.0,7.0,7.0,9.0,13.0,10.0,8.0,3
106.0,68.0,39.0,5.0,-24.0,14.0,-59.0,37.0,-246.0,81.0,10.0,-2.0,-69.0,-169.0,-262.0,-250.0,-32.0,-47.0,-20.0,-64.0,-53.0,-46.0,-77.0,-69.0,3
-19.0,-21.0,-25.0,-18.0,-12.0,11.0,-1.0,-8.0,28.0,-12.0,-12.0,-11.0,1.0,19.0,31.0,25.0,6.0,9.0,3.0,3.0,19.0,43.0,59.0,11.0,3
112.0,90.0,64.0,10.0,-88.0,-157.0,-43.0,-95.0,-800.0,37.0,-12.0,-39.0,-148.0,-281.0,-439.0,-273.0,-116.0,-197.0,-184.0,-103.0,-111.0,-103.0,-31.0,-125.0,3
101.0,66.0,56.0,25.0,37.0,75.0,66.0,209.0,65.0,113.0,59.0,56.0,3.0,-5.0,59.0,-88.0,39.0,100.0,130.0,25.0,-6.0,32.0,29.0,38.0,3
-17.0,-17.0,-19.0,-17.0,-16.0,-18.0,-17.0,-18.0,-22.0,-18.0,-17.0,-18.0,-16.0,-19.0,-20.0,-24.0,-19.0,-20.0,-21.0,-19.0,-17.0,-17.0,-15.0,-19.0,3
-15.0,-15.0,-14.0,-12.0,-7.0,-8.0,-9.0,-10.0,-15.0,-14.0,-12.0,-10.0,-5.0,-13.0,-20.0,-18.0,-12.0,-10.0,-11.0,-10.0,-11.0,-8.0,-9.0,-16.0,3
-16.0,-9.0,-7.0,-4.0,-3.0,-41.0,-31.0,-2.0,-33.0,-19.0,-18.0,-15.0,-12.0,-9.0,-20.0,-9.0,-30.0,-42.0,-39.0,-43.0,-77.0,-111.0,-142.0,-42.0,3
54.0,47.0,44.0,32.0,8.0,-15.0,35.0,-4.0,-66.0,27.0,17.0,10.0,-6.0,-7.0,-68.0,0.0,-1.0,-79.0,-59.0,-20.0,-8.0,-4.0,8.0,-33.0,3
-5.0,1.0,5.0,4.0,-4.0,-45.0,-22.0,-10.0,54.0,3.0,10.0,10.0,12.0,3.0,48.0,9.0,29.0,32.0,31.0,25.0,25.0,27.0,17.0,28.0,3
-11.0,-11.0,-9.0,-8.0,-1.0,4.0,8.0,22.0,24.0,-3.0,0.0,1.0,8.0,13.0,26.0,24.0,-2.0,20.0,18.0,14.0,12.0,15.0,17.0,25.0,3
-9.0,-10.0,-9.0,-5.0,-4.0,-13.0,-6.0,0.0,5.0,-6.0,-6.0,-5.0,6.0,7.0,-13.0,6.0,-3.0,-3.0,0.0,-4.0,5.0,3.0,11.0,-1.0,3
34.0,23.0,10.0,-10.0,-51.0,-138.0,-41.0,-84.0,-145.0,1.0,-17.0,-23.0,-30.0,-76.0,-150.0,-60.0,-33.0,-115.0,-99.0,-52.0,-34.0,-37.0,-35.0,-74.0,3
-22.0,-23.0,-23.0,-11.0,-2.0,26.0,7.0,17.0,5.0,-14.0,-5.0,0.0,7.0,18.0,27.0,23.0,-5.0,21.0,21.0,16.0,17.0,21.0,35.0,42.0,3
-6.0,-20.0,-20.0,-11.0,13.0,66.0,16.0,47.0,50.0,-5.0,0.0,7.0,17.0,37.0,50.0,36.0,32.0,42.0,41.0,35.0,29.0,31.0,31.0,37.0,3
48.0,37.0,31.0,21.0,7.0,10.0,42.0,28.0,-173.0,27.0,15.0,17.0,44.0,55.0,-24.0,35.0,46.0,1.0,-4.0,41.0,60.0,92.0,156.0,71.0,3
-25.0,-20.0,-17.0,-15.0,-20.0,-27.0,-34.0,-40.0,-22.0,-23.0,-17.0,-21.0,-30.0,-53.0,-66.0,-54.0,-28.0,-27.0,-27.0,-30.0,-31.0,-24.0,-14.0,-33.0,3
59.0,33.0,12.0,-4.0,-47.0,-65.0,-140.0,-109.0,-338.0,53.0,1.0,-8.0,-41.0,-89.0,-261.0,-188.0,-63.0,-150.0,-77.0,-67.0,-34.0,42.0,118.0,-81.0,3
16.0,17.0,18.0,21.0,23.0,24.0,28.0,26.0,22.0,16.0,17.0,20.0,21.0,8.0,27.0,2.0,12.0,17.0,11.0,12.0,10.0,10.0,6.0,9.0,3
122.0,87.0,61.0,53.0,59.0,54.0,41.0,75.0,-59.0,108.0,66.0,58.0,13.0,-36.0,-50.0,-91.0,-26.0,-68.0,-7.0,-18.0,-18.0,0.0,11.0,-37.0,3
9.0,7.0,8.0,9.0,15.0,14.0,11.0,11.0,10.0,9.0,10.0,12.0,12.0,10.0,11.0,9.0,6.0,12.0,13.0,11.0,10.0,7.0,7.0,12.0,3
45.0,48.0,51.0,25.0,-10.0,-88.0,2.0,27.0,19.0,32.0,21.0,9.0,-32.0,-64.0,-33.0,-24.0,27.0,35.0,34.0,17.0,-10.0,-26.0,-8.0,20.0,3
-14.0,-14.0,-15.0,-14.0,-14.0,-15.0,-12.0,-17.0,-12.0,-12.0,-12.0,-14.0,-16.0,-19.0,-12.0,-14.0,-15.0,-14.0,-16.0,-15.0,-17.0,-17.0,-19.0,-17.0,3
-107.0,-124.0,-118.0,-55.0,85.0,176.0,107.0,175.0,819.0,-57.0,-34.0,18.0,84.0,304.0,495.0,123.0,-8.0,119.0,121.0,15.0,33.0,70.0,45.0,68.0,3
-9.0,-8.0,-3.0,3.0,11.0,39.0,12.0,8.0,84.0,0.0,7.0,10.0,21.0,41.0,48.0,43.0,19.0,13.0,14.0,17.0,27.0,41.0,63.0,33.0,3
-22.0,-11.0,1.0,10.0,28.0,62.0,59.0,62.0,10.0,-30.0,-27.0,-27.0,-82.0,-82.0,-16.0,-40.0,-69.0,-53.0,-46.0,-65.0,-113.0,-130.0,-69.0,-107.0,3
62.0,63.0,57.0,56.0,35.0,80.0,21.0,17.0,-282.0,39.0,30.0,29.0,51.0,97.0,-88.0,-13.0,8.0,-28.0,4.0,17.0,37.0,75.0,92.0,21.0,3
5.0,7.0,11.0,7.0,0.0,-11.0,4.0,3.0,-26.0,1.0,2.0,-2.0,-10.0,-9.0,-23.0,-28.0,-13.0,-11.0,-10.0,-11.0,-18.0,-29.0,-37.0,-19.0,3
-33.0,-30.0,-22.0,-11.0,7.0,51.0,-7.0,-4.0,1.0,-27.0,-18.0,-18.0,25.0,46.0,-27.0,-12.0,-4.0,-40.0,2.0,-9.0,0.0,29.0,42.0,6.0,3
-10.0,-4.0,3.0,7.0,11.0,21.0,16.0,18.0,32.0,-5.0,-7.0,-7.0,21.0,32.0,7.0,33.0,16.0,-27.0,15.0,6.0,6.0,16.0,29.0,29.0,3
-7.0,-1.0,2.0,12.0,27.0,25.0,13.0,12.0,-10.0,-2.0,8.0,12.0,23.0,-15.0,-16.0,-4.0,2.0,27.0,32.0,19.0,31.0,27.0,3.0,27.0,3
-2.0,-3.0,-5.0,-3.0,-3.0,-2.0,17.0,12.0,9.0,-1.0,-1.0,-2.0,2.0,12.0,12.0,6.0,-6.0,-6.0,-9.0,-2.0,3.0,4.0,5.0,-3.0,3
-37.0,-37.0,-39.0,-25.0,-24.0,-8.0,-34.0,-32.0,-7.0,-27.0,-32.0,-28.0,-12.0,-10.0,-34.0,-20.0,-29.0,-27.0,-29.0,-30.0,-18.0,-32.0,-21.0,-28.0,3
-21.0,-14.0,-13.0,-11.0,-10.0,6.0,-4.0,-3.0,-53.0,-17.0,-13.0,-9.0,5.0,55.0,39.0,47.0,0.0,-6.0,-1.0,-4.0,5.0,3.0,-13.0,-10.0,3
72.0,64.0,50.0,25.0,-27.0,-135.0,-27.0,-46.0,-380.0,22.0,-2.0,-22.0,-127.0,-158.0,-205.0,-102.0,-33.0,-94.0,-93.0,-43.0,-82.0,-102.0,-73.0,-52.0,3
46.0,44.0,39.0,30.0,8.0,-66.0,76.0,75.0,34.0,36.0,25.0,17.0,-22.0,-85.0,-10.0,-6.0,17.0,19.0,13.0,14.0,-28.0,-85.0,-131.0,-11.0,3
20.0,19.0,12.0,15.0,-14.0,23.0,8.0,-46.0,-34.0,-1.0,-2.0,-3.0,-4.0,9.0,23.0,20.0,0.0,-40.0,-20.0,-2.0,1.0,-6.0,-14.0,2.0,3
-39.0,-27.0,-17.0,15.0,37.0,57.0,32.0,-14.0,40.0,-22.0,-2.0,4.0,11.0,-11.0,-100.0,-90.0,-63.0,-99.0,-50.0,-28.0,-19.0,-33.0,-146.0,-94.0,3
17.0,22.0,45.0,37.0,69.0,108.0,76.0,152.0,212.0,33.0,39.0,43.0,84.0,147.0,173.0,130.0,61.0,109.0,96.0,52.0,53.0,56.0,21.0,62.0,3
-2.0,-14.0,-18.0,-15.0,14.0,2.0,8.0,-20.0,-24.0,-9.0,-9.0,-6.0,54.0,35.0,8.0,-2.0,-10.0,-40.0,-30.0,-26.0,4.0,7.0,-45.0,-54.0,3
145.0,119.0,94.0,64.0,1.0,-132.0,-82.0,-88.0,-367.0,62.0,22.0,3.0,-108.0,-245.0,-324.0,-142.0,-109.0,-158.0,-171.0,-94.0,-117.0,-132.0,-103.0,-115.0,3
19.0,24.0,26.0,21.0,33.0,56.0,48.0,58.0,62.0,19.0,19.0,21.0,34.0,25.0,30.0,27.0,34.0,53.0,32.0,31.0,21.0,11.0,20.0,29.0,3
11.0,7.0,8.0,0.0,-6.0,12.0,70.0,68.0,30.0,8.0,2.0,-1.0,-21.0,-1.0,35.0,29.0,6.0,12.0,10.0,4.0,-19.0,-32.0,-32.0,12.0,3
-10.0,-10.0,-9.0,-6.0,2.0,32.0,3.0,-1.0,-15.0,-10.0,-6.0,-4.0,-1.0,-1.0,-9.0,-7.0,-10.0,-8.0,-7.0,-8.0,-13.0,-17.0,-17.0,-11.0,3
-28.0,-24.0,-19.0,-12.0,-2.0,-1.0,20.0,24.0,46.0,-28.0,-20.0,-18.0,-11.0,-12.0,16.0,10.0,-8.0,13.0,0.0,-9.0,-17.0,-12.0,-15.0,-12.0,3
87.0,81.0,73.0,57.0,26.0,84.0,31.0,1.0,-363.0,40.0,14.0,8.0,-44.0,-77.0,-114.0,-37.0,-22.0,-90.0,-85.0,-29.0,-63.0,-101.0,-96.0,-32.0,3
-34.0,-37.0,-36.0,-39.0,-32.0,-13.0,-19.0,-10.0,-5.0,-29.0,-30.0,-30.0,-24.0,-5.0,-1.0,-8.0,-18.0,-8.0,-12.0,-14.0,-8.0,6.0,23.0,-12.0,3
-5.0,-5.0,-4.0,1.0,9.0,4.0,6.0,12.0,77.0,2.0,6.0,6.0,13.0,45.0,72.0,40.0,4.0,8.0,7.0,8.0,11.0,16.0,12.0,5.0,3
-4.0,-3.0,-2.0,9.0,23.0,47.0,0.0,-2.0,11.0,-1.0,5.0,8.0,23.0,33.0,30.0,12.0,-7.0,1.0,-1.0,2.0,11.0,13.0,-32.0,-23.0,3
-41.0,-36.0,-33.0,-28.0,-23.0,-24.0,-43.0,-38.0,34.0,-29.0,-24.0,-24.0,-20.0,-3.0,10.0,-20.0,-30.0,-31.0,-29.0,-26.0,-31.0,-35.0,-35.0,-33.0,3
33.0,18.0,17.0,8.0,-32.0,-39.0,-80.0,-153.0,-290.0,-8.0,-5.0,-11.0,-26.0,-44.0,-242.0,-103.0,-58.0,-169.0,-107.0,-47.0,-6.0,37.0,102.0,-27.0,3
-22.0,-19.0,-19.0,-20.0,-13.0,-16.0,-27.0,-14.0,18.0,-18.0,-18.0,-16.0,-14.0,-29.0,-22.0,-16.0,-5.0,8.0,-3.0,-9.0,-14.0,-12.0,-15.0,-7.0,3
-19.0,-20.0,-20.0,-18.0,-16.0,-16.0,-14.0,-17.0,-19.0,-16.0,-16.0,-16.0,-18.0,-20.0,-30.0,-17.0,-15.0,-18.0,-16.0,-15.0,-15.0,-17.0,-18.0,-15.0,3
-6.0,1.0,5.0,0.0,2.0,44.0,17.0,32.0,55.0,-1.0,2.0,5.0,11.0,37.0,49.0,35.0,21.0,39.0,22.0,24.0,19.0,13.0,0.0,10.0,3
16.0,14.0,13.0,8.0,-2.0,-35.0,-3.0,0.0,5.0,13.0,9.0,6.0,0.0,-7.0,5.0,3.0,7.0,8.0,6.0,7.0,5.0,3.0,5.0,8.0,3
9.0,8.0,5.0,7.0,4.0,0.0,2.0,3.0,-58.0,3.0,4.0,3.0,1.0,1.0,-55.0,-24.0,-18.0,-24.0,-13.0,-18.0,-5.0,0.0,3.0,-16.0,3
-6.0,-5.0,-4.0,0.0,4.0,7.0,2.0,4.0,29.0,-1.0,4.0,5.0,8.0,13.0,16.0,14.0,11.0,19.0,14.0,11.0,11.0,10.0,11.0,10.0,3
10.0,11.0,17.0,19.0,7.0,-2.0,66.0,64.0,32.0,8.0,8.0,12.0,20.0,9.0,0.0,21.0,17.0,-19.0,30.0,24.0,36.0,54.0,-45.0,6.0,3
90.0,89.0,78.0,66.0,52.0,9.0,20.0,3.0,-229.0,50.0,34.0,23.0,-19.0,-114.0,-178.0,-72.0,-5.0,-46.0,-19.0,-14.0,-44.0,-77.0,-70.0,-29.0,3
-25.0,-21.0,-16.0,-15.0,-7.0,-5.0,-18.0,-1.0,20.0,-14.0,-10.0,-10.0,-3.0,2.0,5.0,3.0,-9.0,11.0,10.0,3.0,4.0,10.0,13.0,9.0,3
39.0,34.0,26.0,18.0,11.0,-10.0,-6.0,-2.0,-118.0,21.0,10.0,5.0,0.0,-26.0,-81.0,-15.0,16.0,-11.0,8.0,11.0,-2.0,-18.0,-16.0,19.0,3
16.0,12.0,10.0,6.0,-2.0,-4.0,5.0,8.0,-69.0,10.0,8.0,4.0,4.0,-20.0,-76.0,-39.0,-3.0,-10.0,-3.0,-3.0,1.0,6.0,6.0,-1.0,3
19.0,14.0,7.0,4.0,-8.0,-16.0,-23.0,-11.0,-150.0,1.0,-5.0,-8.0,-9.0,-57.0,-81.0,-23.0,1.0,-29.0,-25.0,-12.0,-23.0,-28.0,2.0,2.0,3
7.0,10.0,15.0,24.0,35.0,24.0,24.0,31.0,132.0,23.0,26.0,29.0,32.0,42.0,50.0,51.0,19.0,10.0,19.0,21.0,20.0,15.0,24.0,27.0,3
9.0,8.0,12.0,3.0,-16.0,-45.0,-10.0,1.0,32.0,8.0,6.0,4.0,-4.0,3.0,20.0,23.0,2.0,1.0,-1.0,2.0,0.0,5.0,19.0,8.0,3
178.0,138.0,96.0,32.0,-45.0,-12.0,34.0,17.0,-712.0,104.0,22.0,-3.0,-84.0,-188.0,-431.0,-280.0,-52.0,-136.0,-110.0,-80.0,-74.0,-64.0,-19.0,-98.0,3
-22.0,-26.0,-28.0,-25.0,-26.0,-33.0,-19.0,-27.0,4.0,-23.0,-19.0,-17.0,-11.0,27.0,22.0,12.0,-9.0,-28.0,-11.0,-13.0,14.0,19.0,34.0,-7.0,3
-2.0,3.0,6.0,12.0,18.0,29.0,25.0,33.0,15.0,6.0,13.0,19.0,27.0,30.0,23.0,28.0,15.0,42.0,40.0,35.0,38.0,41.0,51.0,70.0,3
215.0,149.0,101.0,44.0,25.0,-88.0,62.0,64.0,-414.0,176.0,78.0,42.0,-81.0,-316.0,-394.0,-385.0,-3.0,-64.0,-30.0,-55.0,-123.0,-207.0,-218.0,-96.0,3
9.0,12.0,10.0,10.0,5.0,-33.0,-2.0,3.0,-8.0,4.0,-10.0,-7.0,-3.0,-39.0,-54.0,-8.0,9.0,-39.0,2.0,6.0,2.0,10.0,52.0,16.0,3
-441.0,-341.0,-249.0,-107.0,34.0,-17.0,144.0,173.0,1851.0,-286.0,-130.0,-61.0,78.0,505.0,1248.0,914.0,-47.0,130.0,5.0,15.0,-9.0,-20.0,-40.0,86.0,3
-13.0,-8.0,-3.0,2.0,6.0,-12.0,4.0,8.0,3.0,-6.0,2.0,7.0,13.0,5.0,7.0,12.0,9.0,34.0,39.0,25.0,24.0,27.0,38.0,48.0,3
90.0,30.0,-24.0,-31.0,-9.0,201.0,183.0,364.0,-499.0,38.0,-26.0,-31.0,-81.0,-140.0,-293.0,-318.0,-249.0,-237.0,-180.0,-182.0,-217.0,-224.0,-217.0,-210.0,3
-156.0,-160.0,-129.0,-77.0,25.0,21.0,29.0,83.0,919.0,-28.0,-5.0,27.0,69.0,141.0,344.0,61.0,46.0,84.0,52.0,43.0,82.0,136.0,121.0,59.0,3
27.0,28.0,27.0,22.0,16.0,21.0,-7.0,-17.0,-15.0,13.0,4.0,-5.0,-7.0,27.0,-13.0,14.0,44.0,-88.0,-63.0,-24.0,-12.0,8.0,59.0,-2.0,3
-60.0,-35.0,-19.0,9.0,50.0,49.0,34.0,124.0,128.0,-12.0,8.0,17.0,17.0,23.0,72.0,29.0,-40.0,55.0,75.0,29.0,15.0,7.0,7.0,40.0,3
-26.0,-22.0,-44.0,-42.0,-43.0,-118.0,-38.0,-72.0,-256.0,-10.0,-16.0,-19.0,-23.0,-75.0,-121.0,-116.0,-22.0,-6.0,-20.0,-12.0,-10.0,-30.0,-54.0,-39.0,3
-20.0,-19.0,-11.0,0.0,12.0,30.0,10.0,12.0,9.0,-18.0,-12.0,-10.0,8.0,-3.0,-10.0,2.0,2.0,-31.0,13.0,1.0,0.0,2.0,-10.0,4.0,3
-6.0,-4.0,-3.0,0.0,1.0,3.0,-1.0,14.0,25.0,-1.0,0.0,4.0,13.0,27.0,-6.0,20.0,19.0,-7.0,25.0,15.0,31.0,45.0,50.0,27.0,3
-3.0,-4.0,-5.0,-6.0,-7.0,-9.0,-4.0,-5.0,-12.0,-5.0,-7.0,-7.0,-9.0,-8.0,-7.0,-4.0,-13.0,-16.0,-15.0,-13.0,-10.0,-11.0,-11.0,-13.0,3
66.0,35.0,13.0,-15.0,-77.0,-43.0,-31.0,2.0,-481.0,-37.0,-83.0,-99.0,-160.0,-312.0,-504.0,-303.0,-249.0,-323.0,-240.0,-235.0,-181.0,-168.0,-154.0,-189.0,3
